//1	2	1	1	0	0	0	0
//Energy [eV]	Trasnport XS[cm^2]
0.01	4.6e-16
0.010269736041559445	4.523262668344574e-16
0.010546747836330505	4.449741339765784e-16
0.010831231637600242	4.3794928326147104e-16
0.011123388992314211	4.3125473507245726e-16
0.011423426883865485	4.2489040229256366e-16
0.011731557878735246	4.188525934444089e-16
0.012048000277088803	4.1313346000501754e-16
0.012372978267433698	4.0772038242111675e-16
0.012706722085449557	4.025952888487381e-16
0.01304946817710207	3.977339000949266e-16
0.013401459366156816	3.9310489364522406e-16
0.013762945026211504	3.886689790142066e-16
0.014134181257368551	3.8437787595320216e-16
0.014515431067673178	3.8017318628451463e-16
0.014906964559445493	3.7598514929974307e-16
0.015309059120638667	3.71738553465117e-16
0.015721999621358725	3.674076686895706e-16
0.016146078615685157	3.6299453385064113e-16
0.016581596548935408	3.5850193265139755e-16
0.017028861970519966	3.5393325607638214e-16
0.017488191752538986	3.492925693734698e-16
0.017959911314275226	3.4458468539653663e-16
0.018444354852742345	3.398152448780815e-16
0.01894186557945199	3.3499080425038335e-16
0.019452795963567235	3.3011893168744563e-16
0.01997750798161485	3.2520831209821556e-16
0.020516373373933153	3.2026788797382507e-16
0.02106977390803717	3.153031946479894e-16
0.02163810164908781	3.1031896449920336e-16
0.022221759237656395	3.053203044395642e-16
0.02282116017498164	3.00312715649312e-16
0.023436729115921	2.9530211395451076e-16
0.024068902169803938	2.9029485093113394e-16
0.024718127209400382	2.852977357352225e-16
0.025384864188223027	2.803180576552305e-16
0.026069585466388562	2.7536360937861633e-16
0.02677277614526849	2.7044271096014254e-16
0.027494934411166662	2.6556423447414394e-16
0.028236571888267125	2.60737629327155e-16
0.028998214001102113	2.5597294820068623e-16
0.029780400346797204	2.5128087358652633e-16
0.030583685077357262	2.4667215056505257e-16
0.031408637292263945	2.4215223236468535e-16
0.03225584144166311	2.3772282475532644e-16
0.033125897740427436	2.33384578790838e-16
0.034019422593388006	2.291369509456351e-16
0.034937049032035865	2.2497801199871446e-16
0.035879427163002804	2.2090423437621682e-16
0.03684722462863968	2.1691025583558855e-16
0.03784112708001777	2.129886171801489e-16
0.03886183866268894	2.0912947148142645e-16
0.03991008251554851	2.0532026205656001e-16
0.04098660128315398	2.0154650526094987e-16
0.0420921576418633	1.977965632836598e-16
0.043227534840164526	1.9405816857030175e-16
0.0443935372535804	1.9031637386700332e-16
0.045590990954540674	1.865532139401925e-16
0.04682074429762567	1.827473332039116e-16
0.04808366852059652	1.788735750918362e-16
0.049380658361636735	1.749025295770626e-16
0.05071263269324343	1.7080115641489244e-16
0.052080535173216806	1.6655453714474937e-16
0.05348533491320887	1.621681480998119e-16
0.05492802716530588	1.5764992881730534e-16
0.056409634027129806	1.530097611882894e-16
0.05793120516595927	1.4825970677454605e-16
0.059493818562382686	1.4341426815478615e-16
0.061098581274009946	1.3849067653700693e-16
0.06274663021978488	1.3350920807296123e-16
0.06443913298545279	1.284935315271222e-16
0.06617728865075462	1.2347109018768743e-16
0.06796232863893378	1.184735211626921e-16
0.06979551758915656	1.1353711548191515e-16
0.07167815425246572	1.0869867894518646e-16
0.07361157241190046	1.0397301658787051e-16
0.07559714182743565	9.936624334955205e-17
0.07763626920640973	9.488394704684156e-17
0.07973039920012773	9.053107467976982e-17
0.08188101542734741	8.63117952532536e-17
0.08408964152537145	8.222934597464459e-17
0.08635784222949204	7.828586014297314e-17
0.0886872244815519	7.448217488849007e-17
0.09107943856840663	7.081761675010068e-17
0.09353617929109649	6.728976289206531e-17
0.09605918716555398	6.389417555860388e-17
0.09865024965569935	6.062410714433204e-17
0.10131120243979728	5.747045853974436e-17
0.10404393071097112	5.442836505503508e-17
0.10685037051279737	5.149848654648517e-17
0.10973251011092557	4.8680648747833674e-17
0.11269239140169583	4.597334867374101e-17
0.11573211135875187	4.337355088062591e-17
0.11885382351867453	4.087646111313088e-17
0.12205973950668773	3.8475739092653063e-17
0.12535213060351882	3.616904033250323e-17
0.12873332935452234	3.395701331303376e-17
0.13220573122220802	3.183943606866281e-17
0.13577179628334304	2.981498514188139e-17
0.13943405097183148	2.788106752814451e-17
0.14319508986860544	2.6033634002990087e-17
0.147057577539796	2.4266972017088422e-17
0.15102425042448658	2.2573527606775512e-17
0.1550979187733849	2.0949735146657296e-17
0.159281468639789	1.9402813001010902e-17
0.16357786392425616	1.7941816249329174e-17
0.1679901484744239	1.657645785755868e-17
0.17252144824147134	1.531684977152415e-17
0.17717497349474703	1.41681015855041e-17
0.1819540210961343	1.3129961084926436e-17
0.18686197683576378	1.2200884812094641e-17
0.19190231783072884	1.1378020366804821e-17
0.19707861498850315	1.0657017040542299e-17
0.2023945355368048	1.0032045993150664e-17
0.2078538456217008	9.502536793723505e-18
0.21346041297579135	9.075498847079316e-18
0.21921820965836467	8.758721466168315e-18
0.22513131486946422	8.560365928174377e-18
0.23120391783986044	8.488974972825552e-18
0.23744032079897634	8.553481747594815e-18
0.24384494202286838	8.763218075781133e-18
0.25042231896442235	9.12792116744403e-18
0.25717711146798233	9.654105231559342e-18
0.2641141050706889	1.0335580162204747e-17
0.27123821439286716	1.1161154140809101e-17
0.27855448661986554	1.2116572800845775e-17
0.28606810507781194	1.3184126106726607e-17
0.293784392905822	1.4342214387232325e-17
0.3017088168272581	1.556493659276792e-17
0.3098469910227149	1.6834034447247492e-17
0.3182046811074721	1.8155870430522885e-17
0.3267878082162334	1.9541400648668505e-17
0.33560245319804677	2.1003106334708923e-17
0.3446548609243747	2.2555161095721766e-17
0.35395144471337087	2.4213231399047805e-17
0.363498790873494	2.598132159013945e-17
0.37330366336967985	2.7845949173450206e-17
0.38337300861537754	2.978959210615952e-17
0.3937139603938422	3.179126040000356e-17
0.4043338449121749	3.382643840869202e-17
0.41524018599168694	3.588037197014787e-17
0.4264407103982672	3.7954586804651793e-17
0.43794335331652984	4.0052232974068516e-17
0.44975626397161683	4.2177063811797854e-17
0.4618878114026437	4.433351178630026e-17
0.4743465903918741	4.65267722669154e-17
0.48714142755382617	4.8762895941243686e-17
0.5002813875886247	5.1048890691265057e-17
0.5137757797040269	5.3391711330516374e-17
0.5276341642106751	5.579493439895188e-17
0.5418663592952464	5.826146550016618e-17
0.5564824479762989	6.079447717674215e-17
0.5714927852477425	6.339743629374289e-17
0.5869080054149932	6.60741340850603e-17
0.6027390296290122	6.882871910787441e-17
0.6189970736235632	7.166573337224472e-17
0.6356936556611729	7.459015193651141e-17
0.6528406046934225	7.760742628488629e-17
0.6704500687413504	8.072353183154004e-17
0.6885345235019052	8.394501992583148e-17
0.7071067811865475	8.727896997413396e-17
0.7261799995982571	9.072833702356383e-17
0.7457676914533843	9.428917618594833e-17
0.7658837339549405	9.795583150708615e-17
0.7865423786241177	1.0172121700019796e-16
0.8077582613969991	1.0557664140989245e-16
0.8295464129936156	1.0951161522329318e-16
0.851922269566689	1.1351363827559612e-16
0.8749016836376148	1.1756796615019285e-16
0.898500935327425	1.216573534135897e-16
0.9227367438906924	1.25761771551594e-16
0.947626279560545	1.2985809928444155e-16
0.9731871757131815	1.3391978273341613e-16
0.9994375413605104	1.379164626886811e-16
1.0263959739797586	1.4182678699978228e-16
1.0540815726891442	1.4568556798868843e-16
1.082513951778936	1.495508136655937e-16
1.1117132546075088	1.5349099545240995e-16
1.1417001678722078	1.5758628654491064e-16
1.1724959362651675	1.6192992513785575e-16
1.204122377524438	1.666296194267899e-16
1.2366018978910964	1.7174348028932496e-16
1.269957507983301	1.7714968787920454e-16
1.3042128390985115	1.826706160589371e-16
1.3393921599554546	1.881455476839572e-16
1.375520393887669	1.9352630464704303e-16
1.412623136500823	1.987829159323475e-16
1.4507266738063258	2.0388192135233744e-16
1.4898580008440467	2.0878603269686343e-16
1.53004484080738	2.134583947280142e-16
1.5713156646841642	2.1790095599804305e-16
1.6136997114273886	2.221416598778459e-16
1.6572270086699918	2.2621573427193664e-16
1.7019283939983971	2.30166427045635e-16
1.7478355367998712	2.3409368999494276e-16
1.7949809606992044	2.3829020475010113e-16
1.8433980666005607	2.4313755829385887e-16
1.8931211563508765	2.490784692599307e-16
1.9441854570415298	2.5648022549230407e-16
1.996627145965511	2.6485897898259107e-16
2.050483376247799	2.7328833477021675e-16
2.1057923031670502	2.806820068203954e-16
2.1625931111873116	2.8646957373459525e-16
2.220926041718852	2.921046650774569e-16
2.2808324216278035	2.988014258399682e-16
2.3423546925148373	3.0661150291009214e-16
2.4055364407835502	3.154744672696027e-16
2.4704224285199436	3.253115560322319e-16
2.537058625204809	3.36021418593536e-16
2.6054922402815066	3.4744372094259757e-16
2.6757717566022463	3.593536826731784e-16
2.74794696477649	3.714837983637455e-16
2.8220689984458986	3.83521573238185e-16
2.898190370510742	3.952467026595582e-16
2.9763650103334673	4.0666241937057113e-16
3.0566483019458075	4.178112099014669e-16
3.1390971232864318	4.288342056784469e-16
3.2237698864970223	4.3995280131730745e-16
3.3107265793052485	4.514278152576145e-16
3.4000288075239906	4.634316066719821e-16
3.4917398386969523	4.757804038810122e-16
3.5859246469215034	4.881883027466156e-16
3.682649958880607	5.003943209606315e-16
3.7819843011163594	5.125734226319844e-16
3.883998048578666	5.25124501128316e-16
3.98876347448349	5.385143201444827e-16
4.096354801515895	5.531660416661331e-16
4.206848254414285	5.688858779846383e-16
4.320322113972984	5.851967182303937e-16
4.436856772501462	6.015355877005683e-16
4.55653479077954	6.172654061039102e-16
4.679440956548814	6.322469402550344e-16
4.805662344581873	6.470031570314781e-16
4.935288378371755	6.621866292155447e-16
5.068410893485384	6.785385258851487e-16
5.205124202625939	6.96404690115105e-16
5.345525162450094	7.156580206877745e-16
5.489713242187661	7.361175002919347e-16
5.637790594112079	7.575630150108425e-16
5.789862125911763	7.797305778652485e-16
5.946035575013605	8.023070661440335e-16
6.106421584911182	8.249693431257469e-16
6.271133783551888	8.478960876128841e-16
6.44028886383839	8.716767378273518e-16
6.6140066663015	8.970053183657985e-16
6.792410264003098	9.246859652104698e-16
6.9756260497290885	9.556454398445677e-16
7.163783825534371	9.907564592630051e-16
7.357016894703096	1.0298326234257653e-15
7.555462156189409	1.0721742882552993e-15
7.759260201605685	1.1169373375252126e-15
7.968555414826766	1.163116380521378e-15
8.183496074281006	1.209616484029983e-15
8.404234458000392	1.2557495315979344e-15
8.63092695150424	1.3009558667874463e-15
8.86373415859299	1.3445928873623165e-15
9.102821015130397	1.3859254200506658e-15
9.348356905894931	1.4241156628215744e-15
9.600515784583036	1.4582121559490013e-15
9.85947629704927	1.4871376935800564e-15
10.125421907870798	1.5097065344208817e-15
10.398541030325628	1.5254347549680235e-15
10.679027159876973	1.5347760221847873e-15
10.967079011258079	1.5383682861221147e-15
11.262900659254715	1.5370093077044485e-15
11.566701683285183	1.5316769375322536e-15
11.878697315880007	1.523551493958115e-15
12.199108595166829	1.513973751987609e-15
12.528162521468245	1.503560848283873e-15
12.866092218123661	1.4923043536441035e-15
13.213137096649213	1.480182485409394e-15
13.569543026352447	1.4671755647124374e-15
13.935562508522327	1.4532664396690317e-15
14.311454855317635	1.4384409582484322e-15
14.697486373480634	1.4226884957698461e-15
15.093930553006297	1.4060014924013278e-15
15.501068260900395	1.3882219631910683e-15
15.91918794016419	1.3688446960770832e-15
16.34858581414627	1.3472470647858167e-15
16.78956609640653	1.3227148723374716e-15
17.242441206241075	1.2944755059346642e-15
17.707531990020357	1.2625464427737217e-15
18.18516794849788	1.2278331969965368e-15
18.67568747025004	1.1914507209507148e-15
19.179438071412687	1.1547167672281885e-15
19.696776641884433	1.1191757517244734e-15
20.228069698170664	1.0865956908439233e-15
20.773693643047967	1.057999067858128e-15
21.33403503223241	1.0332569351000592e-15
21.90949084824089	1.0121013609943639e-15
22.500468781639636	9.94184916417654e-16
23.107387519878756	9.790702618350377e-16
23.730677043917964	9.662186426285384e-16
24.370778932853177	9.549771890004818e-16
25.028146676759977	9.44564920133006e-16
25.70324599797583	9.342541935947855e-16
26.39655518104808	9.239115238188922e-16
27.1085654115822	9.135448179894201e-16
27.83978112422976	9.03162286101445e-16
28.590720360062853	8.92772421613428e-16
29.361915133588504	8.823839773792908e-16
30.15391180966234	8.720059370376447e-16
30.967271490569413	8.616476641288753e-16
31.802570413545713	8.513191447606964e-16
32.660400359022226	8.410306383202327e-16
33.54136906988118	8.307925790360326e-16
34.44610068202057	8.206155236749465e-16
35.375236166533185	8.105100904341285e-16
36.32943378381232	8.004868880309284e-16
37.30936954990645	7.905564338954326e-16
38.31573771545349	7.807290602634408e-16
39.349251257533105	7.710148068509287e-16
40.41064238478658	7.614232986636311e-16
41.500663056161265	7.519636073564281e-16
42.62008551364736	7.426440944056417e-16
43.76970282938501	7.334722341920853e-16
44.95032946752814	7.24454414912561e-16
46.162801861264505	7.155957150411175e-16
47.407979005399575	7.06899652847425e-16
48.68674306492452	6.983679062464922e-16
49.99999999999999	6.900000000000002e-16
