//1	2	1	1	0	0	0	0
//Energy[eV]	XS[cm2]
0	3.6644400000000042e-17
0.001	3.6613270891050552e-17
0.002	3.6582141782101056e-17
0.0030000000000000001	3.6551012673151567e-17
0.0040000000000000001	3.6519883564202077e-17
0.0050000000000000001	3.6488754455252581e-17
0.0060000000000000001	3.6457625346303091e-17
0.0070000000000000001	3.6426496237353602e-17
0.0080000000000000002	3.6395367128404106e-17
0.0089999999999999993	3.636423801945461e-17
0.01	3.633310891050512e-17
0.010999999999999999	3.630197980155563e-17
0.012	3.6270850692606134e-17
0.012999999999999999	3.6239721583656645e-17
0.014	3.6208592474707155e-17
0.014999999999999999	3.6177463365757659e-17
0.016	3.6146334256808169e-17
0.017000000000000001	3.6115205147858673e-17
0.017999999999999999	3.6084076038909183e-17
0.019	3.6052946929959688e-17
0.02	3.6021817821010198e-17
0.021000000000000001	3.600846467436947e-17
0.021999999999999999	3.5995111527728741e-17
0.023	3.5981758381088013e-17
0.024	3.5968405234447285e-17
0.025000000000000001	3.5955052087806563e-17
0.025999999999999999	3.5941698941165835e-17
0.027	3.5928345794525106e-17
0.028000000000000001	3.5914992647884378e-17
0.029000000000000001	3.590163950124365e-17
0.029999999999999999	3.5888286354602928e-17
0.031	3.58749332079622e-17
0.032000000000000001	3.5861580061321472e-17
0.033000000000000002	3.5848226914680743e-17
0.034000000000000002	3.5834873768040015e-17
0.035000000000000003	3.5821520621399287e-17
0.035999999999999997	3.5808167474758565e-17
0.036999999999999998	3.5794814328117837e-17
0.037999999999999999	3.5781461181477108e-17
0.039	3.576810803483638e-17
0.040000000000000001	3.5754754888195652e-17
0.041000000000000002	3.5745497104155796e-17
0.042000000000000003	3.5736239320115941e-17
0.042999999999999997	3.5726981536076085e-17
0.043999999999999997	3.571772375203623e-17
0.044999999999999998	3.5708465967996374e-17
0.045999999999999999	3.5699208183956512e-17
0.047	3.5689950399916657e-17
0.048000000000000001	3.5680692615876801e-17
0.049000000000000002	3.5671434831836946e-17
0.050000000000000003	3.566217704779709e-17
0.050999999999999997	3.5652919263757228e-17
0.051999999999999998	3.5643661479717373e-17
0.052999999999999999	3.5634403695677523e-17
0.053999999999999999	3.5625145911637662e-17
0.055	3.5615888127597806e-17
0.056000000000000001	3.560663034355795e-17
0.057000000000000002	3.5597372559518089e-17
0.058000000000000003	3.5588114775478239e-17
0.058999999999999997	3.5578856991438384e-17
0.059999999999999998	3.5569599207398522e-17
0.060999999999999999	3.5562021414664876e-17
0.062	3.5554443621931231e-17
0.063	3.5546865829197585e-17
0.064000000000000001	3.553928803646394e-17
0.065000000000000002	3.5531710243730294e-17
0.066000000000000003	3.5524132450996648e-17
0.067000000000000004	3.5516554658263003e-17
0.068000000000000005	3.5508976865529357e-17
0.069000000000000006	3.5501399072795712e-17
0.070000000000000007	3.5493821280062066e-17
0.070999999999999994	3.548624348732842e-17
0.071999999999999995	3.5478665694594775e-17
0.072999999999999995	3.5471087901861129e-17
0.073999999999999996	3.5463510109127484e-17
0.074999999999999997	3.5455932316393838e-17
0.075999999999999998	3.5448354523660199e-17
0.076999999999999999	3.5440776730926553e-17
0.078	3.5433198938192908e-17
0.079000000000000001	3.5425621145459262e-17
0.080000000000000002	3.5418043352725616e-17
0.081000000000000003	3.5412926066669874e-17
0.082000000000000003	3.5407808780614131e-17
0.083000000000000004	3.5402691494558383e-17
0.084000000000000005	3.539757420850264e-17
0.085000000000000006	3.5392456922446898e-17
0.085999999999999993	3.5387339636391155e-17
0.086999999999999994	3.5382222350335413e-17
0.087999999999999995	3.5377105064279664e-17
0.088999999999999996	3.5371987778223921e-17
0.089999999999999997	3.5366870492168179e-17
0.090999999999999998	3.5361753206112436e-17
0.091999999999999998	3.5356635920056694e-17
0.092999999999999999	3.5351518634000951e-17
0.094	3.5346401347945209e-17
0.095000000000000001	3.5341284061889466e-17
0.096000000000000002	3.5336166775833724e-17
0.097000000000000003	3.5331049489777981e-17
0.098000000000000004	3.5325932203722232e-17
0.099000000000000005	3.532081491766649e-17
0.10000000000000001	3.5315697631610747e-17
0.10100000000000001	3.531236130575701e-17
0.10199999999999999	3.5309024979903273e-17
0.10299999999999999	3.5305688654049536e-17
0.104	3.5302352328195799e-17
0.105	3.5299016002342062e-17
0.106	3.5295679676488331e-17
0.107	3.5292343350634587e-17
0.108	3.5289007024780856e-17
0.109	3.5285670698927113e-17
0.11	3.5282334373073382e-17
0.111	3.5278998047219645e-17
0.112	3.5275661721365908e-17
0.113	3.527232539551217e-17
0.114	3.5268989069658433e-17
0.115	3.5265652743804696e-17
0.11600000000000001	3.5262316417950965e-17
0.11700000000000001	3.5258980092097222e-17
0.11799999999999999	3.5255643766243491e-17
0.11899999999999999	3.5252307440389747e-17
0.12	3.5248971114536016e-17
0.121	3.5246994967089553e-17
0.122	3.524501881964309e-17
0.123	3.5243042672196633e-17
0.124	3.524106652475017e-17
0.125	3.5239090377303713e-17
0.126	3.523711422985725e-17
0.127	3.5235138082410787e-17
0.128	3.5233161934964324e-17
0.129	3.5231185787517867e-17
0.13	3.5229209640071404e-17
0.13100000000000001	3.5227233492624947e-17
0.13200000000000001	3.5225257345178484e-17
0.13300000000000001	3.5223281197732021e-17
0.13400000000000001	3.5221305050285558e-17
0.13500000000000001	3.5219328902839101e-17
0.13600000000000001	3.5217352755392638e-17
0.13700000000000001	3.5215376607946181e-17
0.13800000000000001	3.5213400460499718e-17
0.13900000000000001	3.5211424313053254e-17
0.14000000000000001	3.5209448165606791e-17
0.14099999999999999	3.5208165569914521e-17
0.14199999999999999	3.5206882974222239e-17
0.14299999999999999	3.5205600378529969e-17
0.14399999999999999	3.5204317782837687e-17
0.14499999999999999	3.520303518714541e-17
0.14599999999999999	3.5201752591453134e-17
0.14699999999999999	3.5200469995760858e-17
0.14799999999999999	3.5199187400068582e-17
0.14899999999999999	3.5197904804376306e-17
0.14999999999999999	3.5196622208684036e-17
0.151	3.5195339612991753e-17
0.152	3.5194057017299483e-17
0.153	3.5192774421607201e-17
0.154	3.5191491825914931e-17
0.155	3.5190209230222648e-17
0.156	3.5188926634530378e-17
0.157	3.5187644038838096e-17
0.158	3.5186361443145826e-17
0.159	3.5185078847453544e-17
0.16	3.5183796251761274e-17
0.161	3.5182916908368635e-17
0.16200000000000001	3.5182037564975997e-17
0.16300000000000001	3.5181158221583359e-17
0.16400000000000001	3.5180278878190721e-17
0.16500000000000001	3.5179399534798083e-17
0.16600000000000001	3.5178520191405445e-17
0.16700000000000001	3.5177640848012807e-17
0.16800000000000001	3.5176761504620175e-17
0.16900000000000001	3.5175882161227537e-17
0.17000000000000001	3.5175002817834905e-17
0.17100000000000001	3.5174123474442267e-17
0.17199999999999999	3.5173244131049629e-17
0.17299999999999999	3.5172364787656991e-17
0.17399999999999999	3.5171485444264353e-17
0.17499999999999999	3.5170606100871715e-17
0.17599999999999999	3.5169726757479077e-17
0.17699999999999999	3.5168847414086439e-17
0.17799999999999999	3.5167968070693807e-17
0.17899999999999999	3.5167088727301169e-17
0.17999999999999999	3.5166209383908531e-17
0.18099999999999999	3.5165580394754324e-17
0.182	3.5164951405600123e-17
0.183	3.5164322416445917e-17
0.184	3.5163693427291716e-17
0.185	3.5163064438137516e-17
0.186	3.5162435448983309e-17
0.187	3.5161806459829108e-17
0.188	3.5161177470674902e-17
0.189	3.5160548481520701e-17
0.19	3.5159919492366501e-17
0.191	3.5159290503212294e-17
0.192	3.5158661514058093e-17
0.193	3.5158032524903887e-17
0.19400000000000001	3.515740353574968e-17
0.19500000000000001	3.5156774546595479e-17
0.19600000000000001	3.5156145557441273e-17
0.19700000000000001	3.5155516568287078e-17
0.19800000000000001	3.5154887579132871e-17
0.19900000000000001	3.5154258589978665e-17
0.20000000000000001	3.5153629600824464e-17
0.20100000000000001	3.5153164219983845e-17
0.20200000000000001	3.5152698839143232e-17
0.20300000000000001	3.5152233458302614e-17
0.20399999999999999	3.5151768077461995e-17
0.20499999999999999	3.5151302696621382e-17
0.20599999999999999	3.5150837315780763e-17
0.20699999999999999	3.515037193494015e-17
0.20799999999999999	3.5149906554099531e-17
0.20899999999999999	3.5149441173258912e-17
0.20999999999999999	3.5148975792418306e-17
0.21099999999999999	3.5148510411577687e-17
0.21199999999999999	3.5148045030737068e-17
0.21299999999999999	3.5147579649896455e-17
0.214	3.5147114269055836e-17
0.215	3.5146648888215223e-17
0.216	3.5146183507374604e-17
0.217	3.5145718126533985e-17
0.218	3.5145252745693373e-17
0.219	3.5144787364852754e-17
0.22	3.5144321984012141e-17
0.221	3.5143968023719526e-17
0.222	3.5143614063426917e-17
0.223	3.5143260103134301e-17
0.224	3.5142906142841692e-17
0.22500000000000001	3.5142552182549083e-17
0.22600000000000001	3.5142198222256474e-17
0.22700000000000001	3.5141844261963865e-17
0.22800000000000001	3.514149030167125e-17
0.22900000000000001	3.5141136341378641e-17
0.23000000000000001	3.5140782381086026e-17
0.23100000000000001	3.5140428420793417e-17
0.23200000000000001	3.5140074460500808e-17
0.23300000000000001	3.5139720500208193e-17
0.23400000000000001	3.5139366539915584e-17
0.23499999999999999	3.5139012579622974e-17
0.23599999999999999	3.5138658619330365e-17
0.23699999999999999	3.5138304659037756e-17
0.23799999999999999	3.5137950698745141e-17
0.23899999999999999	3.5137596738452526e-17
0.23999999999999999	3.5137242778159917e-17
0.24099999999999999	3.5136967313819754e-17
0.24199999999999999	3.5136691849479592e-17
0.24299999999999999	3.513641638513943e-17
0.24399999999999999	3.5136140920799267e-17
0.245	3.5135865456459111e-17
0.246	3.5135589992118942e-17
0.247	3.513531452777878e-17
0.248	3.5135039063438617e-17
0.249	3.5134763599098455e-17
0.25	3.5134488134758292e-17
0.251	3.513421267041813e-17
0.252	3.5133937206077967e-17
0.253	3.5133661741737805e-17
0.254	3.5133386277397642e-17
0.255	3.513311081305748e-17
0.25600000000000001	3.5132835348717317e-17
0.25700000000000001	3.5132559884377155e-17
0.25800000000000001	3.5132284420036992e-17
0.25900000000000001	3.513200895569683e-17
0.26000000000000001	3.5131733491356667e-17
0.26100000000000001	3.5131514918839292e-17
0.26200000000000001	3.5131296346321917e-17
0.26300000000000001	3.5131077773804549e-17
0.26400000000000001	3.5130859201287174e-17
0.26500000000000001	3.5130640628769793e-17
0.26600000000000001	3.5130422056252424e-17
0.26700000000000002	3.5130203483735049e-17
0.26800000000000002	3.5129984911217674e-17
0.26900000000000002	3.5129766338700305e-17
0.27000000000000002	3.512954776618293e-17
0.27100000000000002	3.5129329193665555e-17
0.27200000000000002	3.512911062114818e-17
0.27300000000000002	3.5128892048630812e-17
0.27400000000000002	3.5128673476113437e-17
0.27500000000000002	3.5128454903596062e-17
0.27600000000000002	3.5128236331078687e-17
0.27700000000000002	3.5128017758561312e-17
0.27800000000000002	3.5127799186043937e-17
0.27900000000000003	3.5127580613526568e-17
0.28000000000000003	3.5127362041009193e-17
0.28100000000000003	3.512718570784675e-17
0.28199999999999997	3.5127009374684307e-17
0.28299999999999997	3.5126833041521864e-17
0.28399999999999997	3.5126656708359421e-17
0.28499999999999998	3.5126480375196985e-17
0.28599999999999998	3.5126304042034542e-17
0.28699999999999998	3.5126127708872099e-17
0.28799999999999998	3.5125951375709656e-17
0.28899999999999998	3.5125775042547213e-17
0.28999999999999998	3.512559870938477e-17
0.29099999999999998	3.5125422376222327e-17
0.29199999999999998	3.5125246043059884e-17
0.29299999999999998	3.5125069709897447e-17
0.29399999999999998	3.5124893376735004e-17
0.29499999999999998	3.5124717043572561e-17
0.29599999999999999	3.5124540710410118e-17
0.29699999999999999	3.5124364377247675e-17
0.29799999999999999	3.5124188044085232e-17
0.29899999999999999	3.5124011710922789e-17
0.29999999999999999	3.5123835377760347e-17
0.30099999999999999	3.5123691061993158e-17
0.30199999999999999	3.512354674622597e-17
0.30299999999999999	3.5123402430458776e-17
0.30399999999999999	3.5123258114691582e-17
0.30499999999999999	3.5123113798924394e-17
0.30599999999999999	3.5122969483157199e-17
0.307	3.5122825167390011e-17
0.308	3.5122680851622817e-17
0.309	3.5122536535855623e-17
0.31	3.5122392220088441e-17
0.311	3.5122247904321246e-17
0.312	3.5122103588554052e-17
0.313	3.5121959272786858e-17
0.314	3.512181495701967e-17
0.315	3.5121670641252481e-17
0.316	3.5121526325485287e-17
0.317	3.5121382009718093e-17
0.318	3.5121237693950905e-17
0.31900000000000001	3.5121093378183716e-17
0.32000000000000001	3.5120949062416522e-17
0.32100000000000001	3.5120767193064676e-17
0.32200000000000001	3.5120585323712829e-17
0.32300000000000001	3.5120403454360983e-17
0.32400000000000001	3.512022158500913e-17
0.32500000000000001	3.5120039715657284e-17
0.32600000000000001	3.5119857846305431e-17
0.32700000000000001	3.5119675976953585e-17
0.32800000000000001	3.5119494107601738e-17
0.32900000000000001	3.5119312238249892e-17
0.33000000000000002	3.5119130368898039e-17
0.33100000000000002	3.5118948499546193e-17
0.33200000000000002	3.5118766630194347e-17
0.33300000000000002	3.51185847608425e-17
0.33400000000000002	3.5118402891490654e-17
0.33500000000000002	3.5118221022138801e-17
0.33600000000000002	3.5118039152786955e-17
0.33700000000000002	3.5117857283435102e-17
0.33800000000000002	3.5117675414083256e-17
0.33900000000000002	3.5117493544731409e-17
0.34000000000000002	3.5117311675379563e-17
0.34100000000000003	3.5117016311693396e-17
0.34200000000000003	3.511672094800723e-17
0.34300000000000003	3.5116425584321063e-17
0.34399999999999997	3.5116130220634896e-17
0.34499999999999997	3.511583485694873e-17
0.34599999999999997	3.5115539493262563e-17
0.34699999999999998	3.511524412957639e-17
0.34799999999999998	3.5114948765890224e-17
0.34899999999999998	3.5114653402204064e-17
0.34999999999999998	3.5114358038517891e-17
0.35099999999999998	3.5114062674831724e-17
0.35199999999999998	3.5113767311145558e-17
0.35299999999999998	3.5113471947459391e-17
0.35399999999999998	3.5113176583773224e-17
0.35499999999999998	3.5112881220087058e-17
0.35599999999999998	3.5112585856400891e-17
0.35699999999999998	3.5112290492714725e-17
0.35799999999999998	3.5111995129028552e-17
0.35899999999999999	3.5111699765342392e-17
0.35999999999999999	3.5111404401656225e-17
0.36099999999999999	3.5111773929286735e-17
0.36199999999999999	3.5112143456917239e-17
0.36299999999999999	3.5112512984547749e-17
0.36399999999999999	3.5112882512178266e-17
0.36499999999999999	3.5113252039808776e-17
0.36599999999999999	3.511362156743928e-17
0.36699999999999999	3.511399109506979e-17
0.36799999999999999	3.5114360622700307e-17
0.36899999999999999	3.5114730150330817e-17
0.37	3.5115099677961321e-17
0.371	3.5115469205591831e-17
0.372	3.5115838733222348e-17
0.373	3.5116208260852858e-17
0.374	3.5116577788483362e-17
0.375	3.5116947316113878e-17
0.376	3.5117316843744388e-17
0.377	3.5117686371374899e-17
0.378	3.5118055899005403e-17
0.379	3.5118425426635919e-17
0.38	3.5118794954266429e-17
0.38100000000000001	3.5121046134973684e-17
0.38200000000000001	3.5123297315680932e-17
0.38300000000000001	3.5125548496388187e-17
0.38400000000000001	3.5127799677095435e-17
0.38500000000000001	3.5130050857802683e-17
0.38600000000000001	3.5132302038509938e-17
0.38700000000000001	3.5134553219217193e-17
0.38800000000000001	3.5136804399924441e-17
0.38900000000000001	3.5139055580631696e-17
0.39000000000000001	3.5141306761338944e-17
0.39100000000000001	3.5143557942046198e-17
0.39200000000000002	3.5145809122753453e-17
0.39300000000000002	3.5148060303460701e-17
0.39400000000000002	3.515031148416795e-17
0.39500000000000002	3.5152562664875204e-17
0.39600000000000002	3.5154813845582453e-17
0.39700000000000002	3.5157065026289707e-17
0.39800000000000002	3.5159316206996962e-17
0.39900000000000002	3.516156738770421e-17
0.40000000000000002	3.5163818568411465e-17
0.40100000000000002	3.5170075302342878e-17
0.40200000000000002	3.5176332036274292e-17
0.40300000000000002	3.5182588770205706e-17
0.40400000000000003	3.518884550413712e-17
0.40500000000000003	3.519510223806854e-17
0.40600000000000003	3.5201358971999954e-17
0.40699999999999997	3.5207615705931367e-17
0.40799999999999997	3.5213872439862787e-17
0.40899999999999997	3.5220129173794201e-17
0.40999999999999998	3.5226385907725615e-17
0.41099999999999998	3.5232642641657029e-17
0.41199999999999998	3.5238899375588442e-17
0.41299999999999998	3.5245156109519856e-17
0.41399999999999998	3.5251412843451276e-17
0.41499999999999998	3.525766957738269e-17
0.41599999999999998	3.526392631131411e-17
0.41699999999999998	3.5270183045245524e-17
0.41799999999999998	3.5276439779176937e-17
0.41899999999999998	3.5282696513108351e-17
0.41999999999999998	3.5288953247039765e-17
0.42099999999999999	3.5299424346982324e-17
0.42199999999999999	3.5309895446924889e-17
0.42299999999999999	3.5320366546867447e-17
0.42399999999999999	3.5330837646810012e-17
0.42499999999999999	3.5341308746752571e-17
0.42599999999999999	3.5351779846695136e-17
0.42699999999999999	3.5362250946637695e-17
0.42799999999999999	3.5372722046580259e-17
0.42899999999999999	3.5383193146522818e-17
0.42999999999999999	3.5393664246465377e-17
0.43099999999999999	3.5404135346407936e-17
0.432	3.5414606446350494e-17
0.433	3.5425077546293059e-17
0.434	3.5435548646235618e-17
0.435	3.5446019746178183e-17
0.436	3.5456490846120742e-17
0.437	3.5466961946063307e-17
0.438	3.5477433046005865e-17
0.439	3.548790414594843e-17
0.44	3.5498375245890989e-17
0.441	3.5510176001643934e-17
0.442	3.5521976757396873e-17
0.443	3.5533777513149817e-17
0.44400000000000001	3.5545578268902762e-17
0.44500000000000001	3.5557379024655707e-17
0.44600000000000001	3.5569179780408658e-17
0.44700000000000001	3.5580980536161603e-17
0.44800000000000001	3.5592781291914547e-17
0.44900000000000001	3.5604582047667486e-17
0.45000000000000001	3.5616382803420431e-17
0.45100000000000001	3.5628183559173376e-17
0.45200000000000001	3.563998431492632e-17
0.45300000000000001	3.5651785070679265e-17
0.45400000000000001	3.566358582643221e-17
0.45500000000000002	3.5675386582185155e-17
0.45600000000000002	3.5687187337938099e-17
0.45700000000000002	3.5698988093691044e-17
0.45800000000000002	3.5710788849443989e-17
0.45900000000000002	3.5722589605196934e-17
0.46000000000000002	3.5734390360949879e-17
0.46100000000000002	3.5745980414654287e-17
0.46200000000000002	3.5757570468358701e-17
0.46300000000000002	3.5769160522063115e-17
0.46400000000000002	3.5780750575767523e-17
0.46500000000000002	3.5792340629471938e-17
0.46600000000000003	3.5803930683176352e-17
0.46700000000000003	3.581552073688076e-17
0.46800000000000003	3.5827110790585174e-17
0.46899999999999997	3.5838700844289588e-17
0.46999999999999997	3.5850290897993996e-17
0.47099999999999997	3.5861880951698411e-17
0.47199999999999998	3.5873471005402825e-17
0.47299999999999998	3.5885061059107233e-17
0.47399999999999998	3.5896651112811647e-17
0.47499999999999998	3.5908241166516061e-17
0.47599999999999998	3.5919831220220469e-17
0.47699999999999998	3.5931421273924884e-17
0.47799999999999998	3.5943011327629292e-17
0.47899999999999998	3.5954601381333712e-17
0.47999999999999998	3.596619143503812e-17
0.48099999999999998	3.5977576516199054e-17
0.48199999999999998	3.5988961597359988e-17
0.48299999999999998	3.6000346678520921e-17
0.48399999999999999	3.6011731759681855e-17
0.48499999999999999	3.6023116840842789e-17
0.48599999999999999	3.6034501922003722e-17
0.48699999999999999	3.6045887003164662e-17
0.48799999999999999	3.605727208432559e-17
0.48899999999999999	3.6068657165486523e-17
0.48999999999999999	3.6080042246647457e-17
0.49099999999999999	3.6091427327808397e-17
0.49199999999999999	3.6102812408969331e-17
0.49299999999999999	3.6114197490130258e-17
0.49399999999999999	3.6125582571291192e-17
0.495	3.6136967652452132e-17
0.496	3.6148352733613065e-17
0.497	3.6159737814773999e-17
0.498	3.6171122895934927e-17
0.499	3.6182507977095866e-17
0.5	3.61938930582568e-17
0.501	3.6205431006633173e-17
0.502	3.6216968955009539e-17
0.503	3.6228506903385911e-17
0.504	3.6240044851762284e-17
0.505	3.6251582800138656e-17
0.50600000000000001	3.6263120748515023e-17
