//1	2	1	1	0	0	0	0
//Energy[eV]	XS[cm2]
0	2.9410158600000036e-17
0.001	2.9385174918147387e-17
0.002	2.9360191236294732e-17
0.0030000000000000001	2.9335207554442089e-17
0.0040000000000000001	2.9310223872589433e-17
0.0050000000000000001	2.9285240190736784e-17
0.0060000000000000001	2.9260256508884135e-17
0.0070000000000000001	2.9235272827031486e-17
0.0080000000000000002	2.9210289145178836e-17
0.0089999999999999993	2.9185305463326181e-17
0.01	2.9160321781473532e-17
0.010999999999999999	2.9135338099620883e-17
0.012	2.9110354417768234e-17
0.012999999999999999	2.9085370735915584e-17
0.014	2.9060387054062935e-17
0.014999999999999999	2.9035403372210286e-17
0.016	2.9010419690357637e-17
0.017000000000000001	2.8985436008504981e-17
0.017999999999999999	2.8960452326652338e-17
0.019	2.8935468644799683e-17
0.02	2.8910484962947034e-17
0.021000000000000001	2.8899767959516417e-17
0.021999999999999999	2.8889050956085807e-17
0.023	2.8878333952655185e-17
0.024	2.8867616949224569e-17
0.025000000000000001	2.8856899945793958e-17
0.025999999999999999	2.8846182942363342e-17
0.027	2.8835465938932726e-17
0.028000000000000001	2.882474893550211e-17
0.029000000000000001	2.8814031932071493e-17
0.029999999999999999	2.8803314928640883e-17
0.031	2.8792597925210267e-17
0.032000000000000001	2.878188092177965e-17
0.033000000000000002	2.8771163918349034e-17
0.034000000000000002	2.8760446914918418e-17
0.035000000000000003	2.8749729911487802e-17
0.035999999999999997	2.8739012908057191e-17
0.036999999999999998	2.8728295904626575e-17
0.037999999999999999	2.8717578901195953e-17
0.039	2.8706861897765343e-17
0.040000000000000001	2.8696144894334726e-17
0.041000000000000002	2.8688714757754597e-17
0.042000000000000003	2.8681284621174475e-17
0.042999999999999997	2.8673854484594352e-17
0.043999999999999997	2.8666424348014229e-17
0.044999999999999998	2.86589942114341e-17
0.045999999999999999	2.8651564074853977e-17
0.047	2.8644133938273849e-17
0.048000000000000001	2.8636703801693726e-17
0.049000000000000002	2.8629273665113603e-17
0.050000000000000003	2.8621843528533474e-17
0.050999999999999997	2.8614413391953351e-17
0.051999999999999998	2.8606983255373229e-17
0.052999999999999999	2.8599553118793106e-17
0.053999999999999999	2.8592122982212977e-17
0.055	2.8584692845632854e-17
0.056000000000000001	2.8577262709052725e-17
0.057000000000000002	2.8569832572472603e-17
0.058000000000000003	2.856240243589248e-17
0.058999999999999997	2.8554972299312351e-17
0.059999999999999998	2.8547542162732228e-17
0.060999999999999999	2.854146035797804e-17
0.062	2.8535378553223846e-17
0.063	2.8529296748469658e-17
0.064000000000000001	2.8523214943715471e-17
0.065000000000000002	2.8517133138961276e-17
0.066000000000000003	2.8511051334207089e-17
0.067000000000000004	2.8504969529452901e-17
0.068000000000000005	2.8498887724698707e-17
0.069000000000000006	2.8492805919944519e-17
0.070000000000000007	2.8486724115190331e-17
0.070999999999999994	2.8480642310436137e-17
0.071999999999999995	2.8474560505681949e-17
0.072999999999999995	2.8468478700927755e-17
0.073999999999999996	2.8462396896173567e-17
0.074999999999999997	2.8456315091419379e-17
0.075999999999999998	2.8450233286665185e-17
0.076999999999999999	2.8444151481910997e-17
0.078	2.8438069677156809e-17
0.079000000000000001	2.8431987872402615e-17
0.080000000000000002	2.8425906067648427e-17
0.081000000000000003	2.842179902279298e-17
0.082000000000000003	2.8417691977937533e-17
0.083000000000000004	2.841358493308208e-17
0.084000000000000005	2.8409477888226632e-17
0.085000000000000006	2.8405370843371185e-17
0.085999999999999993	2.8401263798515738e-17
0.086999999999999994	2.8397156753660291e-17
0.087999999999999995	2.8393049708804844e-17
0.088999999999999996	2.8388942663949396e-17
0.089999999999999997	2.8384835619093949e-17
0.090999999999999998	2.8380728574238502e-17
0.091999999999999998	2.8376621529383055e-17
0.092999999999999999	2.8372514484527602e-17
0.094	2.8368407439672154e-17
0.095000000000000001	2.8364300394816707e-17
0.096000000000000002	2.836019334996126e-17
0.097000000000000003	2.8356086305105813e-17
0.098000000000000004	2.835197926025036e-17
0.099000000000000005	2.8347872215394912e-17
0.10000000000000001	2.8343765170539465e-17
0.10100000000000001	2.8341087493390988e-17
0.10199999999999999	2.8338409816242511e-17
0.10299999999999999	2.8335732139094034e-17
0.104	2.8333054461945557e-17
0.105	2.833037678479708e-17
0.106	2.8327699107648603e-17
0.107	2.832502143050012e-17
0.108	2.8322343753351649e-17
0.109	2.8319666076203165e-17
0.11	2.8316988399054688e-17
0.111	2.8314310721906211e-17
0.112	2.8311633044757734e-17
0.113	2.8308955367609257e-17
0.114	2.830627769046078e-17
0.115	2.8303600013312303e-17
0.11600000000000001	2.8300922336163826e-17
0.11700000000000001	2.8298244659015349e-17
0.11799999999999999	2.8295566981866872e-17
0.11899999999999999	2.8292889304718388e-17
0.12	2.8290211627569911e-17
0.121	2.8288625605972688e-17
0.122	2.8287039584375458e-17
0.123	2.8285453562778235e-17
0.124	2.8283867541181005e-17
0.125	2.8282281519583782e-17
0.126	2.8280695497986552e-17
0.127	2.8279109476389328e-17
0.128	2.8277523454792105e-17
0.129	2.8275937433194875e-17
0.13	2.8274351411597652e-17
0.13100000000000001	2.8272765390000422e-17
0.13200000000000001	2.8271179368403199e-17
0.13300000000000001	2.8269593346805969e-17
0.13400000000000001	2.8268007325208745e-17
0.13500000000000001	2.8266421303611516e-17
0.13600000000000001	2.8264835282014292e-17
0.13700000000000001	2.8263249260417063e-17
0.13800000000000001	2.8261663238819839e-17
0.13900000000000001	2.8260077217222615e-17
0.14000000000000001	2.8258491195625386e-17
0.14099999999999999	2.8257461806612887e-17
0.14199999999999999	2.8256432417600388e-17
0.14299999999999999	2.8255403028587895e-17
0.14399999999999999	2.8254373639575397e-17
0.14499999999999999	2.8253344250562904e-17
0.14599999999999999	2.8252314861550405e-17
0.14699999999999999	2.8251285472537912e-17
0.14799999999999999	2.8250256083525414e-17
0.14899999999999999	2.8249226694512921e-17
0.14999999999999999	2.8248197305500422e-17
0.151	2.8247167916487923e-17
0.152	2.8246138527475431e-17
0.153	2.8245109138462932e-17
0.154	2.8244079749450439e-17
0.155	2.824305036043794e-17
0.156	2.8242020971425448e-17
0.157	2.8240991582412949e-17
0.158	2.823996219340045e-17
0.159	2.8238932804387957e-17
0.16	2.8237903415375458e-17
0.161	2.8249964724061592e-17
0.16200000000000001	2.8287945735964718e-17
0.16300000000000001	2.8325924813970461e-17
0.16400000000000001	2.8363901958078806e-17
0.16500000000000001	2.8401877168289768e-17
0.16600000000000001	2.8439850444603339e-17
0.16700000000000001	2.8477821787019521e-17
0.16800000000000001	2.8515791195538318e-17
0.16900000000000001	2.8553758670159719e-17
0.17000000000000001	2.8591724210883735e-17
0.17100000000000001	2.8629687817710362e-17
0.17199999999999999	2.8667649490639598e-17
0.17299999999999999	2.8705609229671444e-17
0.17399999999999999	2.8743567034805906e-17
0.17499999999999999	2.8781522906042972e-17
0.17599999999999999	2.8819476843382647e-17
0.17699999999999999	2.8857428846824944e-17
0.17799999999999999	2.8895378916369845e-17
0.17899999999999999	2.8933327052017356e-17
0.17999999999999999	2.8971273253767483e-17
0.18099999999999999	2.9009424048348434e-17
0.182	2.906311596950067e-17
0.183	2.9158827541207755e-17
0.184	2.9254535670305161e-17
0.185	2.9350240356792874e-17
0.186	2.9445941600670896e-17
0.187	2.9541639401939238e-17
0.188	2.9637333760597889e-17
0.189	2.9733024676646854e-17
0.19	2.9828712150086139e-17
0.191	2.9924396180915733e-17
0.192	3.002007676913564e-17
0.193	3.0115753914745857e-17
0.19400000000000001	3.0211427617746393e-17
0.19500000000000001	3.0307097878137238e-17
0.19600000000000001	3.0402764695918403e-17
0.19700000000000001	3.0498428071089876e-17
0.19800000000000001	3.0594088003651664e-17
0.19900000000000001	3.0689744493603766e-17
0.20000000000000001	3.0785397540946183e-17
0.20100000000000001	3.088119087156169e-17
0.20200000000000001	3.0976981655035357e-17
0.20300000000000001	3.1072769891367197e-17
0.20399999999999999	3.1168555580557189e-17
0.20499999999999999	3.1264338722605348e-17
0.20599999999999999	3.1348123309789267e-17
0.20699999999999999	3.1416638223418985e-17
0.20799999999999999	3.1485151311823213e-17
0.20899999999999999	3.1553662575001958e-17
0.20999999999999999	3.1622172012955231e-17
0.21099999999999999	3.1690679625683015e-17
0.21199999999999999	3.1759185413185315e-17
0.21299999999999999	3.1827689375462138e-17
0.214	3.1896191512513477e-17
0.215	3.1964691824339327e-17
0.216	3.20331903109397e-17
0.217	3.2101686972314595e-17
0.218	3.2170181808464e-17
0.219	3.2238674819387928e-17
0.22	3.2307166005086373e-17
0.221	3.2375758009765505e-17
0.222	3.2444348626210988e-17
0.223	3.2512937854422809e-17
0.224	3.2581525694400969e-17
0.22500000000000001	3.2650112146145486e-17
0.22600000000000001	3.2718697209656341e-17
0.22700000000000001	3.278728088493354e-17
0.22800000000000001	3.2855863171977084e-17
0.22900000000000001	3.2924444070786973e-17
0.23000000000000001	3.29930235813632e-17
0.23100000000000001	3.3061601703705778e-17
0.23200000000000001	3.31301784378147e-17
0.23300000000000001	3.3200621677909335e-17
0.23400000000000001	3.327300760735654e-17
0.23499999999999999	3.3345392071773421e-17
0.23599999999999999	3.3417775071159965e-17
0.23699999999999999	3.3490156605516165e-17
0.23799999999999999	3.3562536674842035e-17
0.23899999999999999	3.3634915279137575e-17
0.23999999999999999	3.3707292418402777e-17
0.24099999999999999	3.3779743556553477e-17
0.24199999999999999	3.3852193554566081e-17
0.24299999999999999	3.3924642412440588e-17
0.24399999999999999	3.3997090130176999e-17
0.245	3.4069536707775319e-17
0.246	3.4141982145235531e-17
0.247	3.4214426442557653e-17
0.248	3.4286869599741672e-17
0.249	3.4359311616787601e-17
0.25	3.4431752493695434e-17
0.251	3.4504192230465164e-17
0.252	3.4576630827096798e-17
0.253	3.4649068283590342e-17
0.254	3.4721504599945783e-17
0.255	3.4793939776163128e-17
0.25600000000000001	3.4866373812242376e-17
0.25700000000000001	3.4938806708183534e-17
0.25800000000000001	3.501123846398659e-17
0.25900000000000001	3.508366907965155e-17
0.26000000000000001	3.5156098555178413e-17
0.26100000000000001	3.5228583939583118e-17
0.26200000000000001	3.530106841932316e-17
0.26300000000000001	3.5373551994398539e-17
0.26400000000000001	3.5446034664809261e-17
0.26500000000000001	3.5517637605938062e-17
0.26600000000000001	3.558035381527092e-17
0.26700000000000002	3.5643069241445516e-17
0.26800000000000002	3.5705783884461859e-17
0.26900000000000002	3.5768497744319959e-17
0.27000000000000002	3.5831210821019799e-17
0.27100000000000002	3.5893923114561391e-17
0.27200000000000002	3.5956634624944728e-17
0.27300000000000002	3.6019345352169811e-17
0.27400000000000002	3.6082055296236639e-17
0.27500000000000002	3.6144764457145225e-17
0.27600000000000002	3.6207472834895545e-17
0.27700000000000002	3.6270180429487616e-17
0.27800000000000002	3.633288724092144e-17
0.27900000000000003	3.6395593269197008e-17
0.28000000000000003	3.6458298514314323e-17
0.28100000000000003	3.6521046891703306e-17
0.28199999999999997	3.6583794637280137e-17
0.28299999999999997	3.6646541751044821e-17
0.28399999999999997	3.6709288232997364e-17
0.28499999999999998	3.6772034083137761e-17
0.28599999999999998	3.6834779301466012e-17
0.28699999999999998	3.6897523887982109e-17
0.28799999999999998	3.6960267842686066e-17
0.28899999999999998	3.702301116557787e-17
0.28999999999999998	3.7085753856657541e-17
0.29099999999999998	3.7148495915925052e-17
0.29199999999999998	3.7211237343380422e-17
0.29299999999999998	3.7273978139023646e-17
0.29399999999999998	3.7336718302854724e-17
0.29499999999999998	3.7399457834873649e-17
0.29599999999999999	3.7462196735080433e-17
0.29699999999999999	3.7524935003475071e-17
0.29799999999999999	3.7587672640057562e-17
0.29899999999999999	3.7650409644827906e-17
0.29999999999999999	3.7713146017786104e-17
0.30099999999999999	3.7775916193993023e-17
0.30199999999999999	3.7836748786070211e-17
0.30299999999999999	3.7888756496725745e-17
0.30399999999999999	3.7940763778723003e-17
0.30499999999999999	3.7992770632061984e-17
0.30599999999999999	3.80447770567427e-17
0.307	3.8096783052765134e-17
0.308	3.8148788620129297e-17
0.309	3.8200793758835176e-17
0.31	3.8252798468882798e-17
0.311	3.8304802750272137e-17
0.312	3.8356806603003198e-17
0.313	3.840881002707599e-17
0.314	3.8460813022490498e-17
0.315	3.8512815589246741e-17
0.316	3.8564817727344708e-17
0.317	3.8616819436784399e-17
0.318	3.8668820717565818e-17
0.31900000000000001	3.8720821569688961e-17
0.32000000000000001	3.8772821993153833e-17
0.32100000000000001	3.8824780473785284e-17
0.32200000000000001	3.8876738414213792e-17
0.32300000000000001	3.8928695814439362e-17
0.32400000000000001	3.8980652674461976e-17
0.32500000000000001	3.9032608994281646e-17
0.32600000000000001	3.9084564773898378e-17
0.32700000000000001	3.9136520013312155e-17
0.32800000000000001	3.9188474712522994e-17
0.32900000000000001	3.9240428871530889e-17
0.33000000000000002	3.9292382490335827e-17
0.33100000000000002	3.9344335568937823e-17
0.33200000000000002	3.9396288107336874e-17
0.33300000000000002	3.9448240105532987e-17
0.33400000000000002	3.9500191563526151e-17
0.33500000000000002	3.9552142481316365e-17
0.33600000000000002	3.9604092858903641e-17
0.33700000000000002	3.9656042696287961e-17
0.33800000000000002	3.9707991993469337e-17
0.33900000000000002	3.9759940750447782e-17
0.34000000000000002	3.9811888967223265e-17
0.34100000000000003	3.9863707808676644e-17
0.34200000000000003	3.9915525772817103e-17
0.34300000000000003	3.9967342859644623e-17
0.34399999999999997	4.0020115173154222e-17
0.34499999999999997	4.0079285081569101e-17
0.34599999999999997	4.0138453988950392e-17
0.34699999999999998	4.0197621895298095e-17
0.34799999999999998	4.0256788800612217e-17
0.34899999999999998	4.0315954704892764e-17
0.34999999999999998	4.0375119608139711e-17
0.35099999999999998	4.0434283510353077e-17
0.35199999999999998	4.0493446411532867e-17
0.35299999999999998	4.0552608311679058e-17
0.35399999999999998	4.0611769210791667e-17
0.35499999999999998	4.0670929108870695e-17
0.35599999999999998	4.0730088005916135e-17
0.35699999999999998	4.0789245901927987e-17
0.35799999999999998	4.0848402796906258e-17
0.35899999999999999	4.0907558690850942e-17
0.35999999999999999	4.0966713583762044e-17
0.36099999999999999	4.1026644373430344e-17
0.36199999999999999	4.1086576415485391e-17
0.36299999999999999	4.1146509709927211e-17
0.36399999999999999	4.1206444256755779e-17
0.36499999999999999	4.1266380055971113e-17
0.36599999999999999	4.1326317107573188e-17
0.36699999999999999	4.138625541156203e-17
0.36799999999999999	4.1446194967937625e-17
0.36899999999999999	4.1506135776699981e-17
0.37	4.1566077837849084e-17
0.371	4.1626021151384948e-17
0.372	4.1685965717307571e-17
0.373	4.1745911535616949e-17
0.374	4.180585860631308e-17
0.375	4.1865806929395971e-17
0.376	4.1925756504865617e-17
0.377	4.1985707332722022e-17
0.378	4.2045659412965175e-17
0.379	4.2105612745595095e-17
0.38	4.2165567330611768e-17
0.38100000000000001	4.2227785573364477e-17
0.38200000000000001	4.2290011445719605e-17
0.38300000000000001	4.2352244947677152e-17
0.38400000000000001	4.2414486079237124e-17
0.38500000000000001	4.2476734840399503e-17
0.38600000000000001	4.2538299767935137e-17
0.38700000000000001	4.2583276055589663e-17
0.38800000000000001	4.262825775749408e-17
0.38900000000000001	4.2673244873648389e-17
0.39000000000000001	4.271823740405259e-17
0.39100000000000001	4.2763235348706688e-17
0.39200000000000002	4.2808238707610685e-17
0.39300000000000002	4.2853247480764567e-17
0.39400000000000002	4.2898261668168347e-17
0.39500000000000002	4.2943281269822024e-17
0.39600000000000002	4.2988306285725587e-17
0.39700000000000002	4.3033336715879049e-17
0.39800000000000002	4.3078372560282408e-17
0.39900000000000002	4.3123413818935652e-17
0.40000000000000002	4.3168460491838794e-17
0.40100000000000002	4.3218434767506866e-17
0.40200000000000002	4.3268424091065558e-17
0.40300000000000002	4.3318428462514847e-17
0.40400000000000003	4.3368447881854745e-17
0.40500000000000003	4.3418482349085264e-17
0.40600000000000003	4.346853186420638e-17
0.40699999999999997	4.3518596427218104e-17
0.40799999999999997	4.356867603812045e-17
0.40899999999999997	4.3618770696913392e-17
0.40999999999999998	4.3668880403596943e-17
0.41099999999999998	4.3719005158171109e-17
0.41199999999999998	4.3769144960635884e-17
0.41299999999999998	4.3819299810991262e-17
0.41399999999999998	4.3869469709237255e-17
0.41499999999999998	4.391965465537385e-17
0.41599999999999998	4.3969854649401061e-17
0.41699999999999998	4.4020069691318874e-17
0.41799999999999998	4.4070299781127302e-17
0.41899999999999998	4.4120544918826339e-17
0.41999999999999998	4.4170805104415979e-17
0.42099999999999999	4.4226360482653903e-17
0.42199999999999999	4.4281941044632781e-17
0.42299999999999999	4.43375467903526e-17
0.42399999999999999	4.4393177719813367e-17
0.42499999999999999	4.4448833833015075e-17
0.42599999999999999	4.4504515129957731e-17
0.42699999999999999	4.4560221610641328e-17
0.42799999999999999	4.4615953275065872e-17
0.42899999999999999	4.4671710123231358e-17
0.42999999999999999	4.4727492155137792e-17
0.43099999999999999	4.4783299370785173e-17
0.432	4.4839131770173489e-17
0.433	4.4894989353302759e-17
0.434	4.495087212017297e-17
0.435	4.5006780070784129e-17
0.436	4.5062713205136229e-17
0.437	4.5118671523229283e-17
0.438	4.5174655025063272e-17
0.439	4.5230663710638209e-17
0.44	4.5286527168059671e-17
0.441	4.5343628410292767e-17
0.442	4.5400757598413135e-17
0.443	4.5457914732420781e-17
0.44400000000000001	4.5515099812315704e-17
0.44500000000000001	4.5572312838097892e-17
0.44600000000000001	4.562955380976737e-17
0.44700000000000001	4.5686822727324107e-17
0.44800000000000001	4.5744119590768128e-17
0.44900000000000001	4.5801444400099414e-17
0.45000000000000001	4.5858797155317977e-17
0.45100000000000001	4.5916177856423818e-17
0.45200000000000001	4.5973586503416931e-17
0.45300000000000001	4.6031023096297321e-17
0.45400000000000001	4.6088487635064982e-17
0.45500000000000002	4.6145980119719914e-17
0.45600000000000002	4.6203500550262124e-17
0.45700000000000002	4.6261048926691618e-17
0.45800000000000002	4.6318625249008371e-17
0.45900000000000002	4.6376229517212407e-17
0.46000000000000002	4.6433861731303715e-17
0.46100000000000002	4.6491247852046338e-17
0.46200000000000002	4.6548661419703493e-17
0.46300000000000002	4.6606102434275142e-17
0.46400000000000002	4.6663570895761303e-17
0.46500000000000002	4.6721066804161982e-17
0.46600000000000003	4.6778590159477169e-17
0.46700000000000003	4.6836140961706867e-17
0.46800000000000003	4.6893719210851079e-17
0.46899999999999997	4.695132490690979e-17
0.46999999999999997	4.700895804988302e-17
0.47099999999999997	4.7066618639770769e-17
0.47199999999999998	4.7124306676573031e-17
0.47299999999999998	4.7182022160289793e-17
0.47399999999999998	4.7239765090921079e-17
0.47499999999999998	4.7297535468466872e-17
0.47599999999999998	4.7355333292927178e-17
0.47699999999999998	4.7413158564301996e-17
0.47799999999999998	4.7471011282591333e-17
0.47899999999999998	4.752889144779517e-17
0.47999999999999998	4.7586799059913532e-17
0.48099999999999998	4.764446267746414e-17
0.48199999999999998	4.770215325652478e-17
0.48299999999999998	4.775987079709547e-17
0.48399999999999999	4.7817615299176199e-17
0.48499999999999999	4.7875386762766971e-17
0.48599999999999999	4.7933185187867788e-17
0.48699999999999999	4.7991010574478643e-17
0.48799999999999999	4.8048862922599536e-17
0.48899999999999999	4.8106742232230473e-17
0.48999999999999999	4.8164648503371455e-17
0.49099999999999999	4.8222581736022481e-17
0.49199999999999999	4.8280541930183544e-17
0.49299999999999999	4.8338529085854646e-17
0.49399999999999999	4.8396543203035792e-17
0.495	4.8454584281726982e-17
0.496	4.8512652321928211e-17
0.497	4.8570747323639483e-17
0.498	4.8628076670856931e-17
0.499	4.8685139229005422e-17
0.5	4.8742228065155148e-17
0.501	4.8799549221631715e-17
0.502	4.8856897008943619e-17
0.503	4.8914271427090865e-17
0.504	4.8971672476073465e-17
0.505	4.9029100155891389e-17
0.50600000000000001	4.908655446654465e-17
