//1	2	1	1	0	0	0	0
//Energy[eV]	XS[cm2]
0	3.9150000000000048e-17
0.001	3.9116742404968536e-17
0.002	3.6999032286740389e-17
0.0030000000000000001	3.4902225301855558e-17
0.0040000000000000001	3.3273671691828563e-17
0.0050000000000000001	3.1715415493988533e-17
0.0060000000000000001	2.9802661989438246e-17
0.0070000000000000001	2.8020381721041231e-17
0.0080000000000000002	2.6793626398802343e-17
0.0089999999999999993	2.5420118729476306e-17
0.01	2.3808020083806772e-17
0.010999999999999999	2.337392431667115e-17
0.012	2.3353881072732161e-17
0.012999999999999999	2.3333837828793168e-17
0.014	2.3313794584854181e-17
0.014999999999999999	2.3293751340915191e-17
0.016	2.3273708096976201e-17
0.017000000000000001	2.3253664853037212e-17
0.017999999999999999	2.3233621609098225e-17
0.019	2.3213578365159235e-17
0.02	2.3193535121220245e-17
0.021000000000000001	2.318493736868234e-17
0.021999999999999999	2.3176339616144438e-17
0.023	2.3167741863606533e-17
0.024	2.3159144111068625e-17
0.025000000000000001	2.3150546358530723e-17
0.025999999999999999	2.3141948605992818e-17
0.027	2.3133350853454913e-17
0.028000000000000001	2.3124753100917011e-17
0.029000000000000001	2.3116155348379106e-17
0.029999999999999999	2.3107557595841204e-17
0.031	2.3098959843303299e-17
0.032000000000000001	2.3090362090765394e-17
0.033000000000000002	2.3081764338227493e-17
0.034000000000000002	2.3073166585689588e-17
0.035000000000000003	2.3064568833151683e-17
0.035999999999999997	2.3055971080613781e-17
0.036999999999999998	2.3047373328075876e-17
0.037999999999999999	2.3038775575537971e-17
0.039	2.3030177823000069e-17
0.040000000000000001	2.3021580070462161e-17
0.041000000000000002	2.301561921806043e-17
0.042000000000000003	2.3009658365658699e-17
0.042999999999999997	2.3003697513256972e-17
0.043999999999999997	2.2997736660855238e-17
0.044999999999999998	2.2991775808453507e-17
0.045999999999999999	2.2985814956051776e-17
0.047	2.2979854103650043e-17
0.048000000000000001	2.2973893251248315e-17
0.049000000000000002	2.2967932398846584e-17
0.050000000000000003	2.2961971546444854e-17
0.050999999999999997	2.295601069404312e-17
0.051999999999999998	2.2950049841641389e-17
0.052999999999999999	2.2944088989239662e-17
0.053999999999999999	2.2938128136837928e-17
0.055	2.2932167284436197e-17
0.056000000000000001	2.2926206432034467e-17
0.057000000000000002	2.2920245579632736e-17
0.058000000000000003	2.2914284727231005e-17
0.058999999999999997	2.2908323874829275e-17
0.059999999999999998	2.2902363022427544e-17
0.060999999999999999	2.289748387382981e-17
0.062	2.289260472523208e-17
0.063	2.2887725576634347e-17
0.064000000000000001	2.2882846428036616e-17
0.065000000000000002	2.2877967279438883e-17
0.066000000000000003	2.2873088130841152e-17
0.067000000000000004	2.2868208982243419e-17
0.068000000000000005	2.2863329833645689e-17
0.069000000000000006	2.2858450685047955e-17
0.070000000000000007	2.2853571536450225e-17
0.070999999999999994	2.2848692387852491e-17
0.071999999999999995	2.2843813239254761e-17
0.072999999999999995	2.2838934090657027e-17
0.073999999999999996	2.2834054942059297e-17
0.074999999999999997	2.2829175793461564e-17
0.075999999999999998	2.2824296644863833e-17
0.076999999999999999	2.28194174962661e-17
0.078	2.2814538347668369e-17
0.079000000000000001	2.2809659199070636e-17
0.080000000000000002	2.2804780050472906e-17
0.081000000000000003	2.2801485159736161e-17
0.082000000000000003	2.2798190268999413e-17
0.083000000000000004	2.2794895378262665e-17
0.084000000000000005	2.279160048752592e-17
0.085000000000000006	2.2788305596789175e-17
0.085999999999999993	2.2785010706052427e-17
0.086999999999999994	2.2781715815315682e-17
0.087999999999999995	2.2778420924578934e-17
0.088999999999999996	2.2775126033842186e-17
0.089999999999999997	2.2771831143105441e-17
0.090999999999999998	2.2768536252368696e-17
0.091999999999999998	2.2765241361631949e-17
0.092999999999999999	2.2761946470895201e-17
0.094	2.2758651580158456e-17
0.095000000000000001	2.2755356689421711e-17
0.096000000000000002	2.2752061798684963e-17
0.097000000000000003	2.2748766907948218e-17
0.098000000000000004	2.274547201721147e-17
0.099000000000000005	2.2742177126474722e-17
0.10000000000000001	2.2738882235737977e-17
0.10100000000000001	2.2736734060117055e-17
0.10199999999999999	2.2734585884496126e-17
0.10299999999999999	2.2732437708875204e-17
0.104	2.2730289533254279e-17
0.105	2.2728141357633356e-17
0.106	2.2725993182012431e-17
0.107	2.2723845006391505e-17
0.108	2.2721696830770583e-17
0.109	2.2719548655149655e-17
0.11	2.2717400479528732e-17
0.111	2.271525230390781e-17
0.112	2.2713104128286885e-17
0.113	2.2710955952665959e-17
0.114	2.2708807777045034e-17
0.115	2.2706659601424112e-17
0.11600000000000001	2.2704511425803186e-17
0.11700000000000001	2.2702363250182261e-17
0.11799999999999999	2.2700215074561339e-17
0.11899999999999999	2.2698066898940413e-17
0.12	2.2695918723319488e-17
0.121	2.2694646332086157e-17
0.122	2.2693373940852821e-17
0.123	2.2692101549619488e-17
0.124	2.2690829158386154e-17
0.125	2.2689556767152821e-17
0.126	2.2688284375919485e-17
0.127	2.2687011984686151e-17
0.128	2.2685739593452818e-17
0.129	2.2684467202219485e-17
0.13	2.2683194810986148e-17
0.13100000000000001	2.2681922419752818e-17
0.13200000000000001	2.2680650028519481e-17
0.13300000000000001	2.2679377637286148e-17
0.13400000000000001	2.2678105246052815e-17
0.13500000000000001	2.2676832854819481e-17
0.13600000000000001	2.2675560463586145e-17
0.13700000000000001	2.2674288072352815e-17
0.13800000000000001	2.2673015681119478e-17
0.13900000000000001	2.2671743289886145e-17
0.14000000000000001	2.2670470898652808e-17
0.14099999999999999	2.2669645067808212e-17
0.14199999999999999	2.2668819236963612e-17
0.14299999999999999	2.2667993406119013e-17
0.14399999999999999	2.2667167575274413e-17
0.14499999999999999	2.2666341744429813e-17
0.14599999999999999	2.2665515913585214e-17
0.14699999999999999	2.2664690082740614e-17
0.14799999999999999	2.2663864251896014e-17
0.14899999999999999	2.2663038421051415e-17
0.14999999999999999	2.2662212590206818e-17
0.151	2.2661386759362215e-17
0.152	2.2660560928517619e-17
0.153	2.2659735097673016e-17
0.154	2.2658909266828419e-17
0.155	2.2658083435983817e-17
0.156	2.265725760513922e-17
0.157	2.2656431774294617e-17
0.158	2.2655605943450021e-17
0.159	2.2654780112605421e-17
0.16	2.2653954281760821e-17
0.161	2.2653388094847045e-17
0.16200000000000001	2.2652821907933266e-17
0.16300000000000001	2.2652255721019489e-17
0.16400000000000001	2.265168953410571e-17
0.16500000000000001	2.2651123347191934e-17
0.16600000000000001	2.2650557160278155e-17
0.16700000000000001	2.2649990973364375e-17
0.16800000000000001	2.2649424786450599e-17
0.16900000000000001	2.264885859953682e-17
0.17000000000000001	2.2648292412623046e-17
0.17100000000000001	2.2647726225709267e-17
0.17199999999999999	2.2647160038795491e-17
0.17299999999999999	2.2646593851881711e-17
0.17399999999999999	2.2646027664967935e-17
0.17499999999999999	2.2645461478054156e-17
0.17599999999999999	2.264489529114038e-17
0.17699999999999999	2.26443291042266e-17
0.17799999999999999	2.2643762917312824e-17
0.17899999999999999	2.2643196730399045e-17
0.17999999999999999	2.2642630543485268e-17
0.18099999999999999	2.2642225553317602e-17
0.182	2.2641820563149939e-17
0.183	2.2641415572982275e-17
0.184	2.2641010582814615e-17
0.185	2.2640605592646949e-17
0.186	2.2640200602479285e-17
0.187	2.2639795612311622e-17
0.188	2.2639390622143958e-17
0.189	2.2638985631976292e-17
0.19	2.2638580641808632e-17
0.191	2.2638175651640968e-17
0.192	2.2637770661473305e-17
0.193	2.2637365671305638e-17
0.19400000000000001	2.2636960681137975e-17
0.19500000000000001	2.2636555690970312e-17
0.19600000000000001	2.2636150700802648e-17
0.19700000000000001	2.2635745710634985e-17
0.19800000000000001	2.2635340720467322e-17
0.19900000000000001	2.2634935730299658e-17
0.20000000000000001	2.2634530740131995e-17
0.20100000000000001	2.2634231093208977e-17
0.20200000000000001	2.2633931446285959e-17
0.20300000000000001	2.2633631799362941e-17
0.20399999999999999	2.2633332152439923e-17
0.20499999999999999	2.2633032505516905e-17
0.20599999999999999	2.2632732858593887e-17
0.20699999999999999	2.2632433211670869e-17
0.20799999999999999	2.2632133564747851e-17
0.20899999999999999	2.2631833917824833e-17
0.20999999999999999	2.2631534270901818e-17
0.21099999999999999	2.26312346239788e-17
0.21199999999999999	2.2630934977055782e-17
0.21299999999999999	2.2630635330132764e-17
0.214	2.2630335683209746e-17
0.215	2.2630036036286728e-17
0.216	2.262973638936371e-17
0.217	2.2629436742440692e-17
0.218	2.2629137095517674e-17
0.219	2.2628837448594656e-17
0.22	2.2628537801671638e-17
0.221	2.2628309895614286e-17
0.222	2.2628081989556936e-17
0.223	2.2627854083499584e-17
0.224	2.2627626177442234e-17
0.22500000000000001	2.2627398271384885e-17
0.22600000000000001	2.2627170365327533e-17
0.22700000000000001	2.2626942459270183e-17
0.22800000000000001	2.2626714553212831e-17
0.22900000000000001	2.2626486647155482e-17
0.23000000000000001	2.2626258741098129e-17
0.23100000000000001	2.262603083504078e-17
0.23200000000000001	2.2625802928983431e-17
0.23300000000000001	2.2625575022926078e-17
0.23400000000000001	2.2625347116868726e-17
0.23499999999999999	2.2625119210811376e-17
0.23599999999999999	2.2624891304754027e-17
0.23699999999999999	2.2624663398696678e-17
0.23799999999999999	2.2624435492639322e-17
0.23899999999999999	2.2624207586581973e-17
0.23999999999999999	2.2623979680524624e-17
0.24099999999999999	2.2623802316020702e-17
0.24199999999999999	2.2623624951516777e-17
0.24299999999999999	2.2623447587012855e-17
0.24399999999999999	2.2623270222508934e-17
0.245	2.2623092858005012e-17
0.246	2.2622915493501091e-17
0.247	2.2622738128997169e-17
0.248	2.2622560764493244e-17
0.249	2.2622383399989322e-17
0.25	2.2622206035485401e-17
0.251	2.2622028670981476e-17
0.252	2.2621851306477554e-17
0.253	2.2621673941973633e-17
0.254	2.2621496577469708e-17
0.255	2.2621319212965789e-17
0.25600000000000001	2.2621141848461868e-17
0.25700000000000001	2.2620964483957943e-17
0.25800000000000001	2.2620787119454021e-17
0.25900000000000001	2.26206097549501e-17
0.26000000000000001	2.2620432390446175e-17
0.26100000000000001	2.2620291657144393e-17
0.26200000000000001	2.2620150923842607e-17
0.26300000000000001	2.2620010190540822e-17
0.26400000000000001	2.2619869457239039e-17
0.26500000000000001	2.2619728723937251e-17
0.26600000000000001	2.2619587990635465e-17
0.26700000000000002	2.2619447257333683e-17
0.26800000000000002	2.2619306524031897e-17
0.26900000000000002	2.2619165790730112e-17
0.27000000000000002	2.2619025057428329e-17
0.27100000000000002	2.2618884324126544e-17
0.27200000000000002	2.2618743590824758e-17
0.27300000000000002	2.2618602857522976e-17
0.27400000000000002	2.2618462124221191e-17
0.27500000000000002	2.2618321390919405e-17
0.27600000000000002	2.261818065761762e-17
0.27700000000000002	2.2618039924315834e-17
0.27800000000000002	2.2617899191014049e-17
0.27900000000000003	2.2617758457712266e-17
0.28000000000000003	2.2617617724410481e-17
0.28100000000000003	2.261750418795831e-17
0.28199999999999997	2.2617390651506139e-17
0.28299999999999997	2.2617277115053968e-17
0.28399999999999997	2.2617163578601797e-17
0.28499999999999998	2.2617050042149626e-17
0.28599999999999998	2.2616936505697459e-17
0.28699999999999998	2.2616822969245285e-17
0.28799999999999998	2.2616709432793114e-17
0.28899999999999998	2.2616595896340943e-17
0.28999999999999998	2.2616482359888775e-17
0.29099999999999998	2.2616368823436601e-17
0.29199999999999998	2.261625528698443e-17
0.29299999999999998	2.2616141750532263e-17
0.29399999999999998	2.2616028214080092e-17
0.29499999999999998	2.2615914677627918e-17
0.29599999999999999	2.261580114117575e-17
0.29699999999999999	2.2615687604723579e-17
0.29799999999999999	2.2615574068271408e-17
0.29899999999999999	2.2615460531819234e-17
0.29999999999999999	2.2615346995367066e-17
0.30099999999999999	2.261525407410386e-17
0.30199999999999999	2.2615161152840656e-17
0.30299999999999999	2.2615068231577449e-17
0.30399999999999999	2.2614975310314242e-17
0.30499999999999999	2.2614882389051035e-17
0.30599999999999999	2.2614789467787828e-17
0.307	2.2614696546524625e-17
0.308	2.2614603625261418e-17
0.309	2.2614510703998211e-17
0.31	2.261441778273501e-17
0.311	2.2614324861471803e-17
0.312	2.2614231940208597e-17
0.313	2.261413901894539e-17
0.314	2.2614046097682183e-17
0.315	2.2613953176418979e-17
0.316	2.2613860255155772e-17
0.317	2.2613767333892565e-17
0.318	2.2613674412629362e-17
0.31900000000000001	2.2613581491366155e-17
0.32000000000000001	2.2613488570102948e-17
0.32100000000000001	2.2613371469038797e-17
0.32200000000000001	2.2613254367974644e-17
0.32300000000000001	2.2613137266910493e-17
0.32400000000000001	2.2613020165846337e-17
0.32500000000000001	2.2612903064782183e-17
0.32600000000000001	2.2612785963718032e-17
0.32700000000000001	2.2612668862653879e-17
0.32800000000000001	2.2612551761589728e-17
0.32900000000000001	2.2612434660525575e-17
0.33000000000000002	2.2612317559461421e-17
0.33100000000000002	2.2612200458397267e-17
0.33200000000000002	2.2612083357333114e-17
0.33300000000000002	2.2611966256268963e-17
0.33400000000000002	2.2611849155204809e-17
0.33500000000000002	2.2611732054140659e-17
0.33600000000000002	2.2611614953076505e-17
0.33700000000000002	2.2611497852012349e-17
0.33800000000000002	2.2611380750948198e-17
0.33900000000000002	2.2611263649884044e-17
0.34000000000000002	2.2611146548819894e-17
0.34100000000000003	2.2610956371631646e-17
0.34200000000000003	2.2610766194443404e-17
0.34300000000000003	2.261057601725516e-17
0.34399999999999997	2.2610385840066915e-17
0.34499999999999997	2.2610195662878673e-17
0.34599999999999997	2.2610005485690429e-17
0.34699999999999998	2.2609815308502181e-17
0.34799999999999998	2.2609625131313936e-17
0.34899999999999998	2.2609434954125694e-17
0.34999999999999998	2.260924477693745e-17
0.35099999999999998	2.2609054599749205e-17
0.35199999999999998	2.2608864422560963e-17
0.35299999999999998	2.2608674245372716e-17
0.35399999999999998	2.2608484068184471e-17
0.35499999999999998	2.2608293890996229e-17
0.35599999999999998	2.2608103713807985e-17
0.35699999999999998	2.260791353661974e-17
0.35799999999999998	2.2607723359431495e-17
0.35899999999999999	2.2607533182243254e-17
0.35999999999999999	2.2607343005055006e-17
0.36099999999999999	2.2607580934526503e-17
0.36199999999999999	2.2607818863997997e-17
0.36299999999999999	2.2608056793469497e-17
0.36399999999999999	2.2608294722940995e-17
0.36499999999999999	2.2608532652412492e-17
0.36599999999999999	2.2608770581883986e-17
0.36699999999999999	2.2609008511355483e-17
0.36799999999999999	2.2609246440826981e-17
0.36899999999999999	2.2609484370298478e-17
0.37	2.2609722299769972e-17
0.371	2.2609960229241469e-17
0.372	2.2610198158712967e-17
0.373	2.2610436088184464e-17
0.374	2.2610674017655958e-17
0.375	2.2610911947127455e-17
0.376	2.2611149876598952e-17
0.377	2.261138780607045e-17
0.378	2.2611625735541944e-17
0.379	2.2611863665013444e-17
0.38	2.2612101594484941e-17
0.38100000000000001	2.261355107266112e-17
0.38200000000000001	2.2615000550837299e-17
0.38300000000000001	2.2616450029013478e-17
0.38400000000000001	2.2617899507189657e-17
0.38500000000000001	2.2619348985365835e-17
0.38600000000000001	2.2620798463542014e-17
0.38700000000000001	2.2622247941718196e-17
0.38800000000000001	2.2623697419894372e-17
0.38900000000000001	2.2625146898070554e-17
0.39000000000000001	2.2626596376246729e-17
0.39100000000000001	2.2628045854422911e-17
0.39200000000000002	2.262949533259909e-17
0.39300000000000002	2.2630944810775269e-17
0.39400000000000002	2.2632394288951448e-17
0.39500000000000002	2.263384376712763e-17
0.39600000000000002	2.2635293245303805e-17
0.39700000000000002	2.2636742723479987e-17
0.39800000000000002	2.2638192201656166e-17
0.39900000000000002	2.2639641679832345e-17
0.40000000000000002	2.2641091158008524e-17
0.40100000000000002	2.2645119710340431e-17
0.40200000000000002	2.2649148262672342e-17
0.40300000000000002	2.265317681500425e-17
0.40400000000000003	2.2657205367336155e-17
0.40500000000000003	2.2661233919668066e-17
0.40600000000000003	2.2665262471999974e-17
0.40699999999999997	2.2669291024331881e-17
0.40799999999999997	2.2673319576663792e-17
0.40899999999999997	2.26773481289957e-17
0.40999999999999998	2.2681376681327605e-17
0.41099999999999998	2.2685405233659516e-17
0.41199999999999998	2.2689433785991423e-17
0.41299999999999998	2.2693462338323331e-17
0.41399999999999998	2.2697490890655242e-17
0.41499999999999998	2.270151944298715e-17
0.41599999999999998	2.2705547995319058e-17
0.41699999999999998	2.2709576547650965e-17
0.41799999999999998	2.2713605099982873e-17
0.41899999999999998	2.2717633652314784e-17
0.41999999999999998	2.2721662204646692e-17
0.42099999999999999	2.272840428039318e-17
0.42199999999999999	2.2735146356139675e-17
0.42299999999999999	2.2741888431886167e-17
0.42399999999999999	2.2748630507632661e-17
0.42499999999999999	2.2755372583379153e-17
0.42599999999999999	2.2762114659125644e-17
0.42699999999999999	2.2768856734872136e-17
0.42799999999999999	2.2775598810618631e-17
0.42899999999999999	2.2782340886365122e-17
0.42999999999999999	2.2789082962111611e-17
0.43099999999999999	2.2795825037858105e-17
0.432	2.2802567113604597e-17
0.433	2.2809309189351091e-17
0.434	2.2816051265097583e-17
0.435	2.2822793340844075e-17
0.436	2.2829535416590566e-17
0.437	2.2836277492337061e-17
0.438	2.2843019568083552e-17
0.439	2.2849761643830044e-17
0.44	2.2856503719576535e-17
0.441	2.2864101926984416e-17
0.442	2.2871700134392293e-17
0.443	2.2879298341800173e-17
0.44400000000000001	2.288689654920805e-17
0.44500000000000001	2.289449475661593e-17
0.44600000000000001	2.290209296402381e-17
0.44700000000000001	2.290969117143169e-17
0.44800000000000001	2.2917289378839567e-17
0.44900000000000001	2.2924887586247447e-17
0.45000000000000001	2.2932485793655324e-17
0.45100000000000001	2.2940084001063204e-17
0.45200000000000001	2.2947682208471082e-17
0.45300000000000001	2.2955280415878962e-17
0.45400000000000001	2.2962878623286839e-17
0.45500000000000002	2.2970476830694719e-17
0.45600000000000002	2.2978075038102596e-17
0.45700000000000002	2.2985673245510479e-17
0.45800000000000002	2.2993271452918356e-17
0.45900000000000002	2.3000869660326233e-17
0.46000000000000002	2.3008467867734113e-17
0.46100000000000002	2.3015930409435529e-17
0.46200000000000002	2.3023392951136947e-17
0.46300000000000002	2.3030855492838362e-17
0.46400000000000002	2.3038318034539778e-17
0.46500000000000002	2.3045780576241196e-17
0.46600000000000003	2.3053243117942611e-17
0.46700000000000003	2.3060705659644027e-17
0.46800000000000003	2.3068168201345445e-17
0.46899999999999997	2.3075630743046861e-17
0.46999999999999997	2.3083093284748276e-17
0.47099999999999997	2.3090555826449694e-17
0.47199999999999998	2.309801836815111e-17
0.47299999999999998	2.3105480909852525e-17
0.47399999999999998	2.3112943451553943e-17
0.47499999999999998	2.3120405993255359e-17
0.47599999999999998	2.3127868534956774e-17
0.47699999999999998	2.3135331076658192e-17
0.47799999999999998	2.3142793618359608e-17
0.47899999999999998	2.3150256160061026e-17
0.47999999999999998	2.3157718701762442e-17
0.48099999999999998	2.3165049266840421e-17
0.48199999999999998	2.3172379831918398e-17
0.48299999999999998	2.3179710396996378e-17
0.48399999999999999	2.3187040962074361e-17
0.48499999999999999	2.3194371527152341e-17
0.48599999999999999	2.3201702092230321e-17
0.48699999999999999	2.3209032657308304e-17
0.48799999999999999	2.3216363222386281e-17
0.48899999999999999	2.322369378746426e-17
0.48999999999999999	2.3231024352542243e-17
0.49099999999999999	2.3238354917620223e-17
0.49199999999999999	2.3245685482698203e-17
0.49299999999999999	2.3253016047776183e-17
0.49399999999999999	2.3260346612854163e-17
0.495	2.3267677177932143e-17
0.496	2.3275007743010126e-17
0.497	2.3282338308088106e-17
0.498	2.3289668873166082e-17
0.499	2.3296999438244065e-17
0.5	2.3304330003322045e-17
0.501	2.3311758995723927e-17
0.502	2.3319187988125802e-17
0.503	2.3326616980527683e-17
0.504	2.3334045972929565e-17
0.505	2.3341474965331443e-17
0.50600000000000001	2.3348903957733321e-17
