//1	2	1	1	0	0	0	0
//Energy[eV]	XS[cm2]
0	7.0261200000000086e-17
0.001	7.0201513702783542e-17
0.002	6.394058114905698e-17
0.0030000000000000001	5.7620779712660603e-17
0.0040000000000000001	5.2771751976533601e-17
0.0050000000000000001	4.8118895209330591e-17
0.0060000000000000001	4.2466382116341937e-17
0.0070000000000000001	3.7158139537847458e-17
0.0080000000000000002	3.3492032998502925e-17
0.0089999999999999993	2.9474246223771627e-17
0.01	2.4636125130200056e-17
0.010999999999999999	2.337392431667115e-17
0.012	2.3353881072732161e-17
0.012999999999999999	2.3333837828793168e-17
0.014	2.3313794584854181e-17
0.014999999999999999	2.3293751340915191e-17
0.016	2.3273708096976201e-17
0.017000000000000001	2.3253664853037212e-17
0.017999999999999999	2.3233621609098225e-17
0.019	2.3213578365159235e-17
0.02	2.3193535121220245e-17
0.021000000000000001	2.318493736868234e-17
0.021999999999999999	2.3176339616144438e-17
0.023	2.3167741863606533e-17
0.024	2.3159144111068625e-17
0.025000000000000001	2.3150546358530723e-17
0.025999999999999999	2.3141948605992818e-17
0.027	2.3133350853454913e-17
0.028000000000000001	2.3124753100917011e-17
0.029000000000000001	2.3116155348379106e-17
0.029999999999999999	2.3107557595841204e-17
0.031	2.3098959843303299e-17
0.032000000000000001	2.3090362090765394e-17
0.033000000000000002	2.3081764338227493e-17
0.034000000000000002	2.3073166585689588e-17
0.035000000000000003	2.3064568833151683e-17
0.035999999999999997	2.3055971080613781e-17
0.036999999999999998	2.3047373328075876e-17
0.037999999999999999	2.3038775575537971e-17
0.039	2.3030177823000069e-17
0.040000000000000001	2.3021580070462161e-17
0.041000000000000002	2.301561921806043e-17
0.042000000000000003	2.3009658365658699e-17
0.042999999999999997	2.3003697513256972e-17
0.043999999999999997	2.2997736660855238e-17
0.044999999999999998	2.2991775808453507e-17
0.045999999999999999	2.2985814956051776e-17
0.047	2.2979854103650043e-17
0.048000000000000001	2.2973893251248315e-17
0.049000000000000002	2.2967932398846584e-17
0.050000000000000003	2.2961971546444854e-17
0.050999999999999997	2.295601069404312e-17
0.051999999999999998	2.2950049841641389e-17
0.052999999999999999	2.2944088989239662e-17
0.053999999999999999	2.2938128136837928e-17
0.055	2.2932167284436197e-17
0.056000000000000001	2.2926206432034467e-17
0.057000000000000002	2.2920245579632736e-17
0.058000000000000003	2.2914284727231005e-17
0.058999999999999997	2.2908323874829275e-17
0.059999999999999998	2.2902363022427544e-17
0.060999999999999999	2.289748387382981e-17
0.062	2.289260472523208e-17
0.063	2.2887725576634347e-17
0.064000000000000001	2.2882846428036616e-17
0.065000000000000002	2.2877967279438883e-17
0.066000000000000003	2.2873088130841152e-17
0.067000000000000004	2.2868208982243419e-17
0.068000000000000005	2.2863329833645689e-17
0.069000000000000006	2.2858450685047955e-17
0.070000000000000007	2.2853571536450225e-17
0.070999999999999994	2.2848692387852491e-17
0.071999999999999995	2.2843813239254761e-17
0.072999999999999995	2.2838934090657027e-17
0.073999999999999996	2.2834054942059297e-17
0.074999999999999997	2.2829175793461564e-17
0.075999999999999998	2.2824296644863833e-17
0.076999999999999999	2.28194174962661e-17
0.078	2.2814538347668369e-17
0.079000000000000001	2.2809659199070636e-17
0.080000000000000002	2.2804780050472906e-17
0.081000000000000003	2.2801485159736161e-17
0.082000000000000003	2.2798190268999413e-17
0.083000000000000004	2.2794895378262665e-17
0.084000000000000005	2.279160048752592e-17
0.085000000000000006	2.2788305596789175e-17
0.085999999999999993	2.2785010706052427e-17
0.086999999999999994	2.2781715815315682e-17
0.087999999999999995	2.2778420924578934e-17
0.088999999999999996	2.2775126033842186e-17
0.089999999999999997	2.2771831143105441e-17
0.090999999999999998	2.2768536252368696e-17
0.091999999999999998	2.2765241361631949e-17
0.092999999999999999	2.2761946470895201e-17
0.094	2.2758651580158456e-17
0.095000000000000001	2.2755356689421711e-17
0.096000000000000002	2.2752061798684963e-17
0.097000000000000003	2.2748766907948218e-17
0.098000000000000004	2.274547201721147e-17
0.099000000000000005	2.2742177126474722e-17
0.10000000000000001	2.2738882235737977e-17
0.10100000000000001	2.2850417730417639e-17
0.10199999999999999	2.2961931743341085e-17
0.10299999999999999	2.3073424274508332e-17
0.104	2.3184895323919361e-17
0.105	2.329634489157419e-17
0.106	2.3407772977472803e-17
0.107	2.3519179581615211e-17
0.108	2.3630564704001406e-17
0.109	2.3741928344631389e-17
0.11	2.385327050350517e-17
0.111	2.3964591180622738e-17
0.112	2.4075890375984098e-17
0.113	2.4187168089589248e-17
0.114	2.4298424321438183e-17
0.115	2.4409659071530921e-17
0.11600000000000001	2.4520872339867441e-17
0.11700000000000001	2.4632064126447755e-17
0.11799999999999999	2.4743234431271857e-17
0.11899999999999999	2.4854383254339747e-17
0.12	2.4965510595651437e-17
0.121	2.5077584196955203e-17
0.122	2.5189645074346629e-17
0.123	2.5301693227825729e-17
0.124	2.5413728657392491e-17
0.125	2.5525751363046923e-17
0.126	2.5637761344789016e-17
0.127	2.5749758602618781e-17
0.128	2.5861743136536213e-17
0.129	2.5973714946541309e-17
0.13	2.6085674032634073e-17
0.13100000000000001	2.6197620394814504e-17
0.13200000000000001	2.6309554033082597e-17
0.13300000000000001	2.6421474947438363e-17
0.13400000000000001	2.6533383137881791e-17
0.13500000000000001	2.6645278604412893e-17
0.13600000000000001	2.6757161347031653e-17
0.13700000000000001	2.686903136573808e-17
0.13800000000000001	2.6980888660532179e-17
0.13900000000000001	2.7092733231413941e-17
0.14000000000000001	2.7204565078383374e-17
0.14099999999999999	2.7316922306708896e-17
0.14199999999999999	2.7429271276725968e-17
0.14299999999999999	2.7541611988434595e-17
0.14399999999999999	2.7653944441834781e-17
0.14499999999999999	2.776626863692652e-17
0.14599999999999999	2.7878584573709814e-17
0.14699999999999999	2.7990892252184658e-17
0.14799999999999999	2.8103191672351052e-17
0.14899999999999999	2.8215482834209014e-17
0.14999999999999999	2.8327765737758519e-17
0.151	2.8440040382999579e-17
0.152	2.8552306769932196e-17
0.153	2.8664564898556362e-17
0.154	2.877681476887209e-17
0.155	2.8889056380879367e-17
0.156	2.9001289734578201e-17
0.157	2.9113514829968583e-17
0.158	2.9225731667050522e-17
0.159	2.9337940245824016e-17
0.16	2.9450140566289066e-17
0.161	2.9562671463775395e-17
0.16200000000000001	2.9675196699392578e-17
0.16300000000000001	2.9787716273140622e-17
0.16400000000000001	2.990023018501954e-17
0.16500000000000001	3.0012738435029306e-17
0.16600000000000001	3.0125241023169945e-17
0.16700000000000001	3.023773794944144e-17
0.16800000000000001	3.0350229213843801e-17
0.16900000000000001	3.0462714816377024e-17
0.17000000000000001	3.0575194757041113e-17
0.17100000000000001	3.0687669035836057e-17
0.17199999999999999	3.0800137652761869e-17
0.17299999999999999	3.0912600607818535e-17
0.17399999999999999	3.1025057901006069e-17
0.17499999999999999	3.1137509532324463e-17
0.17599999999999999	3.1249955501773719e-17
0.17699999999999999	3.1362395809353841e-17
0.17799999999999999	3.1474830455064825e-17
0.17899999999999999	3.1587259438906663e-17
0.17999999999999999	3.1699682760879375e-17
0.18099999999999999	3.1812326902411227e-17
0.182	3.1924966994041418e-17
0.183	3.2037603035769915e-17
0.184	3.2150235027596749e-17
0.185	3.2262862969521902e-17
0.186	3.2375486861545374e-17
0.187	3.2488106703667178e-17
0.188	3.26007224958873e-17
0.189	3.2713334238205741e-17
0.19	3.2825941930622514e-17
0.191	3.2938545573137605e-17
0.192	3.3051145165751022e-17
0.193	3.3163740708462763e-17
0.19400000000000001	3.3276332201272824e-17
0.19500000000000001	3.3388919644181209e-17
0.19600000000000001	3.3501503037187914e-17
0.19700000000000001	3.3614082380292956e-17
0.19800000000000001	3.3726657673496311e-17
0.19900000000000001	3.3839228916797984e-17
0.20000000000000001	3.3951796110197989e-17
0.20100000000000001	3.4064517795279511e-17
0.20200000000000001	3.4177236483891798e-17
0.20300000000000001	3.4289952176034851e-17
0.20399999999999999	3.4402664871708682e-17
0.20499999999999999	3.4515374570913272e-17
0.20599999999999999	3.462808127364864e-17
0.20699999999999999	3.4740784979914781e-17
0.20799999999999999	3.4853485689711687e-17
0.20899999999999999	3.4966183403039364e-17
0.20999999999999999	3.5078878119897814e-17
0.21099999999999999	3.5191569840287029e-17
0.21199999999999999	3.5304258564207017e-17
0.21299999999999999	3.5416944291657776e-17
0.214	3.55296270226393e-17
0.215	3.5642306757151591e-17
0.216	3.5754983495194659e-17
0.217	3.5867657236768493e-17
0.218	3.5980327981873099e-17
0.219	3.6092995730508471e-17
0.22	3.6205660482674615e-17
0.221	3.6318437382460929e-17
0.222	3.6431212003186672e-17
0.223	3.6543984344851827e-17
0.224	3.6656754407456418e-17
0.22500000000000001	3.6769522191000432e-17
0.22600000000000001	3.6882287695483882e-17
0.22700000000000001	3.6995050920906755e-17
0.22800000000000001	3.710781186726904e-17
0.22900000000000001	3.7220570534570766e-17
0.23000000000000001	3.733332692281191e-17
0.23100000000000001	3.744608103199249e-17
0.23200000000000001	3.7558832862112499e-17
0.23300000000000001	3.7671582413171919e-17
0.23400000000000001	3.7784329685170775e-17
0.23499999999999999	3.7897074678109055e-17
0.23599999999999999	3.8009817391986758e-17
0.23699999999999999	3.8122557826803896e-17
0.23799999999999999	3.8235295982560452e-17
0.23899999999999999	3.8348031859256444e-17
0.23999999999999999	3.8460765456891859e-17
0.24099999999999999	3.8573582948815287e-17
0.24199999999999999	3.868639866709369e-17
0.24299999999999999	3.8799212611727045e-17
0.24399999999999999	3.8912024782715363e-17
0.245	3.9024835180058644e-17
0.246	3.9137643803756882e-17
0.247	3.9250450653810084e-17
0.248	3.9363255730218248e-17
0.249	3.9476059032981364e-17
0.25	3.958886056209945e-17
0.251	3.9701660317572486e-17
0.252	3.9814458299400492e-17
0.253	3.9927254507583462e-17
0.254	4.0040048942121382e-17
0.255	4.0152841603014272e-17
0.25600000000000001	4.0265632490262119e-17
0.25700000000000001	4.0378421603864929e-17
0.25800000000000001	4.0491208943822703e-17
0.25900000000000001	4.0603994510135428e-17
0.26000000000000001	4.0716778302803116e-17
0.26100000000000001	4.0716524982859904e-17
0.26200000000000001	4.0716271662916692e-17
0.26300000000000001	4.071601834297348e-17
0.26400000000000001	4.0715765023030268e-17
0.26500000000000001	4.0715511703087049e-17
0.26600000000000001	4.0715258383143837e-17
0.26700000000000002	4.0715005063200625e-17
0.26800000000000002	4.0714751743257413e-17
0.26900000000000002	4.0714498423314201e-17
0.27000000000000002	4.0714245103370989e-17
0.27100000000000002	4.0713991783427777e-17
0.27200000000000002	4.0713738463484565e-17
0.27300000000000002	4.0713485143541353e-17
0.27400000000000002	4.0713231823598141e-17
0.27500000000000002	4.0712978503654929e-17
0.27600000000000002	4.0712725183711711e-17
0.27700000000000002	4.0712471863768499e-17
0.27800000000000002	4.0712218543825287e-17
0.27900000000000003	4.0711965223882075e-17
0.28000000000000003	4.0711711903938863e-17
0.28100000000000003	4.0711507538324958e-17
0.28199999999999997	4.0711303172711053e-17
0.28299999999999997	4.0711098807097141e-17
0.28399999999999997	4.0710894441483236e-17
0.28499999999999998	4.0710690075869325e-17
0.28599999999999998	4.071048571025542e-17
0.28699999999999998	4.0710281344641509e-17
0.28799999999999998	4.0710076979027604e-17
0.28899999999999998	4.0709872613413698e-17
0.28999999999999998	4.0709668247799793e-17
0.29099999999999998	4.0709463882185882e-17
0.29199999999999998	4.0709259516571977e-17
0.29299999999999998	4.0709055150958066e-17
0.29399999999999998	4.0708850785344161e-17
0.29499999999999998	4.0708646419730249e-17
0.29599999999999999	4.0708442054116344e-17
0.29699999999999999	4.0708237688502439e-17
0.29799999999999999	4.0708033322888534e-17
0.29899999999999999	4.0707828957274623e-17
0.29999999999999999	4.0707624591660718e-17
0.30099999999999999	4.0707457333386945e-17
0.30199999999999999	4.0707290075113179e-17
0.30299999999999999	4.0707122816839407e-17
0.30399999999999999	4.0706955558565635e-17
0.30499999999999999	4.0706788300291862e-17
0.30599999999999999	4.070662104201809e-17
0.307	4.0706453783744324e-17
0.308	4.0706286525470551e-17
0.309	4.0706119267196779e-17
0.31	4.0705952008923013e-17
0.311	4.0705784750649241e-17
0.312	4.0705617492375468e-17
0.313	4.0705450234101696e-17
0.314	4.0705282975827924e-17
0.315	4.0705115717554158e-17
0.316	4.0704948459280391e-17
0.317	4.0704781201006619e-17
0.318	4.0704613942732853e-17
0.31900000000000001	4.0704446684459081e-17
0.32000000000000001	4.0704279426185308e-17
0.32100000000000001	4.0704068644269831e-17
0.32200000000000001	4.070385786235436e-17
0.32300000000000001	4.0703647080438883e-17
0.32400000000000001	4.0703436298523406e-17
0.32500000000000001	4.0703225516607929e-17
0.32600000000000001	4.0703014734692458e-17
0.32700000000000001	4.070280395277698e-17
0.32800000000000001	4.0702593170861509e-17
0.32900000000000001	4.0702382388946032e-17
0.33000000000000002	4.0702171607030555e-17
0.33100000000000002	4.0701960825115078e-17
0.33200000000000002	4.0701750043199607e-17
0.33300000000000002	4.070153926128413e-17
0.33400000000000002	4.0701328479368659e-17
0.33500000000000002	4.0701117697453182e-17
0.33600000000000002	4.0700906915537705e-17
0.33700000000000002	4.0700696133622227e-17
0.33800000000000002	4.0700485351706756e-17
0.33900000000000002	4.0700274569791279e-17
0.34000000000000002	4.0700063787875802e-17
0.34100000000000003	4.0699721468936963e-17
0.34200000000000003	4.069937914999813e-17
0.34300000000000003	4.0699036831059284e-17
0.34399999999999997	4.0698694512120445e-17
0.34499999999999997	4.0698352193181612e-17
0.34599999999999997	4.0698009874242767e-17
0.34699999999999998	4.0697667555303927e-17
0.34799999999999998	4.0697325236365082e-17
0.34899999999999998	4.0696982917426249e-17
0.34999999999999998	4.069664059848741e-17
0.35099999999999998	4.0696298279548564e-17
0.35199999999999998	4.0695955960609731e-17
0.35299999999999998	4.0695613641670892e-17
0.35399999999999998	4.0695271322732046e-17
0.35499999999999998	4.0694929003793213e-17
0.35599999999999998	4.0694586684854368e-17
0.35699999999999998	4.0694244365915529e-17
0.35799999999999998	4.0693902046976689e-17
0.35899999999999999	4.069355972803785e-17
0.35999999999999999	4.0693217409099011e-17
0.36099999999999999	4.0693645682147708e-17
0.36199999999999999	4.0694073955196392e-17
0.36299999999999999	4.0694502228245089e-17
0.36399999999999999	4.0694930501293786e-17
0.36499999999999999	4.0695358774342483e-17
0.36599999999999999	4.0695787047391174e-17
0.36699999999999999	4.0696215320439865e-17
0.36799999999999999	4.0696643593488561e-17
0.36899999999999999	4.0697071866537258e-17
0.37	4.0697500139585949e-17
0.371	4.069792841263464e-17
0.372	4.0698356685683337e-17
0.373	4.0698784958732034e-17
0.374	4.0699213231780724e-17
0.375	4.0699641504829421e-17
0.376	4.0700069777878112e-17
0.377	4.0700498050926809e-17
0.378	4.0700926323975499e-17
0.379	4.0701354597024196e-17
0.38	4.0701782870072887e-17
0.38100000000000001	4.0704391930790017e-17
0.38200000000000001	4.0707000991507135e-17
0.38300000000000001	4.0709610052224258e-17
0.38400000000000001	4.0712219112941382e-17
0.38500000000000001	4.0714828173658499e-17
0.38600000000000001	4.0717437234375623e-17
0.38700000000000001	4.0720046295092753e-17
0.38800000000000001	4.0722655355809871e-17
0.38900000000000001	4.0725264416526994e-17
0.39000000000000001	4.0727873477244112e-17
0.39100000000000001	4.0730482537961235e-17
0.39200000000000002	4.0733091598678359e-17
0.39300000000000002	4.0735700659395483e-17
0.39400000000000002	4.0738309720112607e-17
0.39500000000000002	4.074091878082973e-17
0.39600000000000002	4.0743527841546848e-17
0.39700000000000002	4.0746136902263971e-17
0.39800000000000002	4.0748745962981095e-17
0.39900000000000002	4.0751355023698219e-17
0.40000000000000002	4.0753964084415343e-17
0.40100000000000002	4.0761215478612775e-17
0.40200000000000002	4.0768466872810214e-17
0.40300000000000002	4.0775718267007647e-17
0.40400000000000003	4.078296966120508e-17
0.40500000000000003	4.0790221055402519e-17
0.40600000000000003	4.0797472449599952e-17
0.40699999999999997	4.0804723843797384e-17
0.40799999999999997	4.0811975237994823e-17
0.40899999999999997	4.0819226632192256e-17
0.40999999999999998	4.0826478026389689e-17
0.41099999999999998	4.0833729420587128e-17
0.41199999999999998	4.0840980814784561e-17
0.41299999999999998	4.0848232208981994e-17
0.41399999999999998	4.0855483603179433e-17
0.41499999999999998	4.0862734997376865e-17
0.41599999999999998	4.0869986391574304e-17
0.41699999999999998	4.0877237785771737e-17
0.41799999999999998	4.088448917996917e-17
0.41899999999999998	4.0891740574166609e-17
0.41999999999999998	4.0898991968364042e-17
0.42099999999999999	4.0911127704707725e-17
0.42199999999999999	4.0923263441051414e-17
0.42299999999999999	4.0935399177395097e-17
0.42399999999999999	4.0947534913738786e-17
0.42499999999999999	4.0959670650082469e-17
0.42599999999999999	4.0971806386426158e-17
0.42699999999999999	4.0983942122769841e-17
0.42799999999999999	4.099607785911353e-17
0.42899999999999999	4.1008213595457213e-17
0.42999999999999999	4.1020349331800902e-17
0.43099999999999999	4.1032485068144591e-17
0.432	4.1044620804488274e-17
0.433	4.1056756540831963e-17
0.434	4.1068892277175646e-17
0.435	4.1081028013519335e-17
0.436	4.1093163749863018e-17
0.437	4.1105299486206708e-17
0.438	4.1117435222550391e-17
0.439	4.112957095889408e-17
0.44	4.1141706695237763e-17
0.441	4.1155383468571942e-17
0.442	4.1169060241906127e-17
0.443	4.1182737015240307e-17
0.44400000000000001	4.1196413788574486e-17
0.44500000000000001	4.1210090561908671e-17
0.44600000000000001	4.1223767335242857e-17
0.44700000000000001	4.1237444108577036e-17
0.44800000000000001	4.1251120881911222e-17
0.44900000000000001	4.1264797655245401e-17
0.45000000000000001	4.127847442857958e-17
0.45100000000000001	4.1292151201913766e-17
0.45200000000000001	4.1305827975247945e-17
0.45300000000000001	4.1319504748582124e-17
0.45400000000000001	4.133318152191631e-17
0.45500000000000002	4.1346858295250489e-17
0.45600000000000002	4.1360535068584668e-17
0.45700000000000002	4.137421184191886e-17
0.45800000000000002	4.1387888615253039e-17
0.45900000000000002	4.1401565388587218e-17
0.46000000000000002	4.1415242161921404e-17
0.46100000000000002	4.1428674736983951e-17
0.46200000000000002	4.1442107312046504e-17
0.46300000000000002	4.1455539887109051e-17
0.46400000000000002	4.1468972462171598e-17
0.46500000000000002	4.1482405037234151e-17
0.46600000000000003	4.1495837612296698e-17
0.46700000000000003	4.1509270187359245e-17
0.46800000000000003	4.1522702762421798e-17
0.46899999999999997	4.1536135337484345e-17
0.46999999999999997	4.1549567912546892e-17
0.47099999999999997	4.1563000487609445e-17
0.47199999999999998	4.1576433062671992e-17
0.47299999999999998	4.1589865637734539e-17
0.47399999999999998	4.1603298212797092e-17
0.47499999999999998	4.1616730787859639e-17
0.47599999999999998	4.1630163362922186e-17
0.47699999999999998	4.164359593798474e-17
0.47799999999999998	4.1657028513047287e-17
0.47899999999999998	4.167046108810984e-17
0.47999999999999998	4.1683893663172393e-17
0.48099999999999998	4.1697088680312754e-17
0.48199999999999998	4.1710283697453114e-17
0.48299999999999998	4.1723478714593481e-17
0.48399999999999999	4.1736673731733848e-17
0.48499999999999999	4.1749868748874215e-17
0.48599999999999999	4.1763063766014576e-17
0.48699999999999999	4.1776258783154942e-17
0.48799999999999999	4.1789453800295303e-17
0.48899999999999999	4.180264881743567e-17
0.48999999999999999	4.1815843834576037e-17
0.49099999999999999	4.1829038851716397e-17
0.49199999999999999	4.1842233868856764e-17
0.49299999999999999	4.1855428885997125e-17
0.49399999999999999	4.1868623903137492e-17
0.495	4.1881818920277859e-17
0.496	4.1895013937418219e-17
0.497	4.1908208954558586e-17
0.498	4.1921403971698947e-17
0.499	4.1934598988839314e-17
0.5	4.1947794005979681e-17
0.501	4.1961166192303066e-17
0.502	4.1974538378626445e-17
0.503	4.198791056494983e-17
0.504	4.2001282751273216e-17
0.505	4.2014654937596595e-17
0.50600000000000001	4.202802712391998e-17
